Datetime,value
BVP
2021-04-21 15:33:50.105580,63.1925
2021-04-21 15:33:50.121210,68.44531
2021-04-21 15:33:50.136840,73.75
2021-04-21 15:33:50.152460,78.15271
2021-04-21 15:33:50.168090,80.43811
2021-04-21 15:33:50.183710,79.69507
2021-04-21 15:33:50.199340,75.76611
2021-04-21 15:33:50.214960,69.30945
2021-04-21 15:33:50.230590,61.51624
2021-04-21 15:33:50.246220,53.68201
2021-04-21 15:33:50.261840,46.73035
2021-04-21 15:33:50.277470,40.9845
2021-04-21 15:33:50.293090,36.16992
2021-04-21 15:33:50.308720,31.69153
2021-04-21 15:33:50.324340,26.98132
2021-04-21 15:33:50.339970,21.79956
2021-04-21 15:33:50.355600,16.35583
2021-04-21 15:33:50.371220,11.23853
2021-04-21 15:33:50.386850,7.172119
2021-04-21 15:33:50.402470,4.700928
2021-04-21 15:33:50.418100,3.904541
2021-04-21 15:33:50.433720,4.157837
2021-04-21 15:33:50.449350,4.189819
2021-04-21 15:33:50.464980,2.362061
2021-04-21 15:33:50.480600,-2.874512
2021-04-21 15:33:50.496230,-12.41174
2021-04-21 15:33:50.511850,-26.02881
2021-04-21 15:33:50.527480,-42.16846
2021-04-21 15:33:50.543100,-58.11938
2021-04-21 15:33:50.558730,-70.60461
2021-04-21 15:33:50.574360,-76.5708
2021-04-21 15:33:50.589980,-74.06848
2021-04-21 15:33:50.605610,-62.75793
2021-04-21 15:33:50.621230,-44.11987
2021-04-21 15:33:50.636860,-21.19263
2021-04-21 15:33:50.652480,1.983765
2021-04-21 15:33:50.668110,21.20935
2021-04-21 15:33:50.683740,33.02454
2021-04-21 15:33:50.699360,35.54749
2021-04-21 15:33:50.714990,28.91602
2021-04-21 15:33:50.730610,15.18262
2021-04-21 15:33:50.746240,-2.337524
2021-04-21 15:33:50.761860,-20.11377
2021-04-21 15:33:50.777490,-35.39148
2021-04-21 15:33:50.793120,-46.76123
2021-04-21 15:33:50.808740,-54.1311
2021-04-21 15:33:50.824370,-58.25269
2021-04-21 15:33:50.839990,-60.03772
2021-04-21 15:33:50.855620,-60.17175
2021-04-21 15:33:50.871240,-59.03845
2021-04-21 15:33:50.886870,-56.96533
2021-04-21 15:33:50.902500,-54.49231
2021-04-21 15:33:50.918120,-52.40527
2021-04-21 15:33:50.933750,-51.51733
2021-04-21 15:33:50.949370,-52.29004
2021-04-21 15:33:50.965000,-54.62939
2021-04-21 15:33:50.980620,-57.85144
2021-04-21 15:33:50.996250,-61.06921
2021-04-21 15:33:51.011880,-63.59094
2021-04-21 15:33:51.027500,-65.23083
2021-04-21 15:33:51.043130,-66.39001
2021-04-21 15:33:51.058750,-67.81201
2021-04-21 15:33:51.074380,-70.20874
2021-04-21 15:33:51.090000,-73.8938
2021-04-21 15:33:51.105630,-78.57495
2021-04-21 15:33:51.121260,-83.3783
2021-04-21 15:33:51.136880,-87.07434
2021-04-21 15:33:51.152510,-88.42078
2021-04-21 15:33:51.168130,-86.45203
2021-04-21 15:33:51.183760,-80.74255
2021-04-21 15:33:51.199380,-71.48462
2021-04-21 15:33:51.215010,-59.43872
2021-04-21 15:33:51.230640,-45.78918
2021-04-21 15:33:51.246260,-31.89453
2021-04-21 15:33:51.261890,-18.98132
2021-04-21 15:33:51.277510,-7.88916
2021-04-21 15:33:51.293140,1.069092
2021-04-21 15:33:51.308760,8.085083
2021-04-21 15:33:51.324390,13.69934
2021-04-21 15:33:51.340020,18.54529
2021-04-21 15:33:51.355640,23.11182
2021-04-21 15:33:51.371270,27.61621
2021-04-21 15:33:51.386890,32.04077
2021-04-21 15:33:51.402520,36.22388
2021-04-21 15:33:51.418140,40.03455
2021-04-21 15:33:51.433770,43.45111
2021-04-21 15:33:51.449400,46.51514
2021-04-21 15:33:51.465020,49.23553
2021-04-21 15:33:51.480650,51.42169
2021-04-21 15:33:51.496270,52.75122
2021-04-21 15:33:51.511900,52.854
2021-04-21 15:33:51.527520,51.51648
2021-04-21 15:33:51.543150,48.80933
2021-04-21 15:33:51.558780,45.08234
2021-04-21 15:33:51.574400,40.74939
2021-04-21 15:33:51.590030,36.03699
2021-04-21 15:33:51.605650,30.81232
2021-04-21 15:33:51.621280,24.64032
2021-04-21 15:33:51.636900,16.98608
2021-04-21 15:33:51.652530,7.473328
2021-04-21 15:33:51.668160,-3.929199
2021-04-21 15:33:51.683780,-16.83185
2021-04-21 15:33:51.699410,-30.42529
2021-04-21 15:33:51.715030,-43.56171
2021-04-21 15:33:51.730660,-54.80438
2021-04-21 15:33:51.746280,-62.62439
2021-04-21 15:33:51.761910,-65.7536
2021-04-21 15:33:51.777540,-63.58289
2021-04-21 15:33:51.793160,-56.55719
2021-04-21 15:33:51.808790,-46.14789
2021-04-21 15:33:51.824410,-34.52625
2021-04-21 15:33:51.840040,-23.83832
2021-04-21 15:33:51.855660,-15.539
2021-04-21 15:33:51.871290,-9.963745
2021-04-21 15:33:51.886920,-6.48468
2021-04-21 15:33:51.902540,-3.995728
2021-04-21 15:33:51.918170,-1.577698
2021-04-21 15:33:51.933790,1.041626
2021-04-21 15:33:51.949420,3.52179
2021-04-21 15:33:51.965040,5.249573
2021-04-21 15:33:51.980670,5.858765
2021-04-21 15:33:51.996300,5.531555
2021-04-21 15:33:52.011920,5.002686
2021-04-21 15:33:52.027550,5.230957
2021-04-21 15:33:52.043170,6.910034
2021-04-21 15:33:52.058800,10.17365
2021-04-21 15:33:52.074420,14.49487
2021-04-21 15:33:52.090050,18.92615
2021-04-21 15:33:52.105680,22.45038
2021-04-21 15:33:52.121300,24.3576
2021-04-21 15:33:52.136930,24.41736
2021-04-21 15:33:52.152550,22.8371
2021-04-21 15:33:52.168180,20.08807
2021-04-21 15:33:52.183800,16.66876
2021-04-21 15:33:52.199430,12.96497
2021-04-21 15:33:52.215060,9.162598
2021-04-21 15:33:52.230680,5.272461
2021-04-21 15:33:52.246310,1.139038
2021-04-21 15:33:52.261930,-3.531738
2021-04-21 15:33:52.277560,-9.134155
2021-04-21 15:33:52.293190,-16.06378
2021-04-21 15:33:52.308810,-24.4903
2021-04-21 15:33:52.324440,-34.07538
2021-04-21 15:33:52.340060,-43.77307
2021-04-21 15:33:52.355690,-51.9201
2021-04-21 15:33:52.371310,-56.62897
2021-04-21 15:33:52.386940,-56.42712
2021-04-21 15:33:52.402570,-50.82343
2021-04-21 15:33:52.418190,-40.59753
2021-04-21 15:33:52.433820,-27.54303
2021-04-21 15:33:52.449440,-13.90881
2021-04-21 15:33:52.465070,-1.667969
2021-04-21 15:33:52.480690,7.958069
2021-04-21 15:33:52.511950,18.69781
2021-04-21 15:33:52.527570,20.84271
2021-04-21 15:33:52.543200,21.7403
2021-04-21 15:33:52.558820,21.93188
2021-04-21 15:33:52.574450,21.8009
2021-04-21 15:33:52.590070,21.62103
2021-04-21 15:33:52.605700,21.60712
2021-04-21 15:33:52.621330,21.91693
2021-04-21 15:33:52.636950,22.58868
2021-04-21 15:33:52.652580,23.51379
2021-04-21 15:33:52.668200,24.48785
2021-04-21 15:33:52.683830,25.24207
2021-04-21 15:33:52.699450,25.65225
2021-04-21 15:33:52.715080,25.77878
2021-04-21 15:33:52.730710,25.92319
2021-04-21 15:33:52.746330,26.46851
2021-04-21 15:33:52.761960,27.71164
2021-04-21 15:33:52.777580,29.59485
2021-04-21 15:33:52.793210,31.68011
2021-04-21 15:33:52.808830,33.22897
2021-04-21 15:33:52.824460,33.49585
2021-04-21 15:33:52.840090,32.06818
2021-04-21 15:33:52.855710,29.06091
2021-04-21 15:33:52.871340,25.13974
2021-04-21 15:33:52.886960,21.30606
2021-04-21 15:33:52.902590,18.56815
2021-04-21 15:33:52.918210,17.52557
2021-04-21 15:33:52.933840,18.15778
2021-04-21 15:33:52.949470,19.69449
2021-04-21 15:33:52.965090,20.74799
2021-04-21 15:33:52.980720,19.64816
2021-04-21 15:33:52.996340,14.93085
2021-04-21 15:33:53.011970,5.8815
2021-04-21 15:33:53.027590,-7.101593
2021-04-21 15:33:53.043220,-22.39532
2021-04-21 15:33:53.058850,-37.45062
2021-04-21 15:33:53.074470,-49.45117
2021-04-21 15:33:53.090100,-56.08881
2021-04-21 15:33:53.105720,-56.20422
2021-04-21 15:33:53.121350,-49.96631
2021-04-21 15:33:53.136970,-38.75974
2021-04-21 15:33:53.152600,-24.62845
2021-04-21 15:33:53.168230,-9.700256
2021-04-21 15:33:53.183850,4.220337
2021-04-21 15:33:53.199480,15.95682
2021-04-21 15:33:53.215100,24.95703
2021-04-21 15:33:53.230730,31.2149
2021-04-21 15:33:53.246350,35.10925
2021-04-21 15:33:53.261980,37.25751
2021-04-21 15:33:53.277610,38.35327
2021-04-21 15:33:53.293230,39.05377
2021-04-21 15:33:53.308860,39.94257
2021-04-21 15:33:53.324480,41.43875
2021-04-21 15:33:53.340110,43.80313
2021-04-21 15:33:53.355730,47.09018
2021-04-21 15:33:53.371360,51.08859
2021-04-21 15:33:53.386990,55.3064
2021-04-21 15:33:53.402610,59.07297
2021-04-21 15:33:53.418240,61.69266
2021-04-21 15:33:53.433860,62.72069
2021-04-21 15:33:53.449490,62.1301
2021-04-21 15:33:53.465110,60.29797
2021-04-21 15:33:53.480740,57.77861
2021-04-21 15:33:53.496370,54.98683
2021-04-21 15:33:53.511990,51.96129
2021-04-21 15:33:53.527620,48.34785
2021-04-21 15:33:53.543240,43.61716
2021-04-21 15:33:53.558870,37.42191
2021-04-21 15:33:53.574490,29.84444
2021-04-21 15:33:53.590120,21.42938
2021-04-21 15:33:53.605750,12.97263
2021-04-21 15:33:53.621370,5.186386
2021-04-21 15:33:53.637000,-1.555374
2021-04-21 15:33:53.652620,-7.307785
2021-04-21 15:33:53.668250,-12.4451
2021-04-21 15:33:53.683870,-17.48189
2021-04-21 15:33:53.699500,-22.91426
2021-04-21 15:33:53.715130,-29.14233
2021-04-21 15:33:53.730750,-36.45126
2021-04-21 15:33:53.746380,-44.9111
2021-04-21 15:33:53.762000,-54.22629
2021-04-21 15:33:53.777630,-63.55315
2021-04-21 15:33:53.793250,-71.54588
2021-04-21 15:33:53.808880,-76.59915
2021-04-21 15:33:53.824510,-77.31613
2021-04-21 15:33:53.840130,-73.05916
2021-04-21 15:33:53.855760,-64.21962
2021-04-21 15:33:53.871380,-52.17818
2021-04-21 15:33:53.887010,-38.85515
2021-04-21 15:33:53.902630,-26.10101
2021-04-21 15:33:53.918260,-15.22018
2021-04-21 15:33:53.933890,-6.747284
2021-04-21 15:33:53.949510,-0.5439758
2021-04-21 15:33:53.965140,3.887115
2021-04-21 15:33:53.980760,7.078293
2021-04-21 15:33:53.996390,9.505898
2021-04-21 15:33:54.012010,11.54051
2021-04-21 15:33:54.027640,13.56914
2021-04-21 15:33:54.043270,15.9585
2021-04-21 15:33:54.058890,19.03036
2021-04-21 15:33:54.074520,22.8759
2021-04-21 15:33:54.090140,27.27604
2021-04-21 15:33:54.105770,31.70023
2021-04-21 15:33:54.121390,35.45035
2021-04-21 15:33:54.137020,37.94596
2021-04-21 15:33:54.152650,38.90928
2021-04-21 15:33:54.168270,38.49829
2021-04-21 15:33:54.183900,37.19338
2021-04-21 15:33:54.199520,35.55729
2021-04-21 15:33:54.215150,33.93126
2021-04-21 15:33:54.230770,32.27393
2021-04-21 15:33:54.246400,30.21253
2021-04-21 15:33:54.262030,27.23283
2021-04-21 15:33:54.277650,23.0432
2021-04-21 15:33:54.293280,17.78503
2021-04-21 15:33:54.308900,12.01334
2021-04-21 15:33:54.324530,6.470856
2021-04-21 15:33:54.340150,1.771755
2021-04-21 15:33:54.355780,-1.908516
2021-04-21 15:33:54.371410,-4.838409
2021-04-21 15:33:54.387030,-7.635601
2021-04-21 15:33:54.402660,-11.00253
2021-04-21 15:33:54.418280,-15.51489
2021-04-21 15:33:54.433910,-21.43056
2021-04-21 15:33:54.449530,-28.52622
2021-04-21 15:33:54.465160,-36.0715
2021-04-21 15:33:54.480790,-42.78584
2021-04-21 15:33:54.496410,-47.10847
2021-04-21 15:33:54.512040,-47.61617
2021-04-21 15:33:54.527660,-43.52446
2021-04-21 15:33:54.543290,-35.08942
2021-04-21 15:33:54.558910,-23.59437
2021-04-21 15:33:54.590170,0.7001104
2021-04-21 15:33:54.605790,10.09793
2021-04-21 15:33:54.621420,16.62276
2021-04-21 15:33:54.637040,20.4523
2021-04-21 15:33:54.652670,22.16413
2021-04-21 15:33:54.668300,22.38769
2021-04-21 15:33:54.683920,21.62699
2021-04-21 15:33:54.699550,20.28183
2021-04-21 15:33:54.715170,18.75053
2021-04-21 15:33:54.730800,17.50135
2021-04-21 15:33:54.746420,16.96775
2021-04-21 15:33:54.762050,17.41194
2021-04-21 15:33:54.777680,18.79844
2021-04-21 15:33:54.793300,20.78717
2021-04-21 15:33:54.808930,22.84959
2021-04-21 15:33:54.824550,24.4912
2021-04-21 15:33:54.840180,25.39637
2021-04-21 15:33:54.855800,25.48038
2021-04-21 15:33:54.871430,24.81869
2021-04-21 15:33:54.887060,23.49727
2021-04-21 15:33:54.902680,21.46886
2021-04-21 15:33:54.918310,18.52548
2021-04-21 15:33:54.933930,14.36481
2021-04-21 15:33:54.949560,8.806648
2021-04-21 15:33:54.965180,1.92144
2021-04-21 15:33:54.980810,-5.897003
2021-04-21 15:33:54.996440,-14.01032
2021-04-21 15:33:55.012060,-21.80266
2021-04-21 15:33:55.027690,-28.90186
2021-04-21 15:33:55.043310,-35.31577
2021-04-21 15:33:55.058940,-41.35481
2021-04-21 15:33:55.074560,-47.37589
2021-04-21 15:33:55.090190,-53.4564
2021-04-21 15:33:55.105820,-59.15141
2021-04-21 15:33:55.121440,-63.43539
2021-04-21 15:33:55.137070,-64.86917
2021-04-21 15:33:55.152690,-61.94112
2021-04-21 15:33:55.168320,-53.5264
2021-04-21 15:33:55.183940,-39.30174
2021-04-21 15:33:55.199570,-20.00301
2021-04-21 15:33:55.215200,2.64772
2021-04-21 15:33:55.230820,26.34219
2021-04-21 15:33:55.246450,48.79395
2021-04-21 15:33:55.262070,68.31647
2021-04-21 15:33:55.277700,84.09494
2021-04-21 15:33:55.293320,96.08266
2021-04-21 15:33:55.308950,104.5538
2021-04-21 15:33:55.324580,109.6518
2021-04-21 15:33:55.340200,111.1855
2021-04-21 15:33:55.355830,108.7667
2021-04-21 15:33:55.371450,102.1975
2021-04-21 15:33:55.387080,91.83012
2021-04-21 15:33:55.402700,78.66293
2021-04-21 15:33:55.418330,64.17636
2021-04-21 15:33:55.433960,49.87529
2021-04-21 15:33:55.449580,36.88953
2021-04-21 15:33:55.465210,25.72583
2021-04-21 15:33:55.480830,16.28265
2021-04-21 15:33:55.496460,8.057281
2021-04-21 15:33:55.512080,0.4249268
2021-04-21 15:33:55.527710,-7.105652
2021-04-21 15:33:55.543340,-14.82581
2021-04-21 15:33:55.558960,-22.79283
2021-04-21 15:33:55.574590,-30.89302
2021-04-21 15:33:55.590210,-38.92764
2021-04-21 15:33:55.605840,-46.6568
2021-04-21 15:33:55.621460,-53.85658
2021-04-21 15:33:55.637090,-60.31638
2021-04-21 15:33:55.652720,-65.95073
2021-04-21 15:33:55.668340,-70.74754
2021-04-21 15:33:55.683970,-74.73166
2021-04-21 15:33:55.699590,-77.80443
2021-04-21 15:33:55.715220,-79.59299
2021-04-21 15:33:55.730840,-79.40154
2021-04-21 15:33:55.746470,-76.35315
2021-04-21 15:33:55.762100,-69.6409
2021-04-21 15:33:55.777720,-58.90361
2021-04-21 15:33:55.793350,-44.4379
2021-04-21 15:33:55.808970,-27.24086
2021-04-21 15:33:55.824600,-8.859177
2021-04-21 15:33:55.840220,8.94989
2021-04-21 15:33:55.855850,24.57323
2021-04-21 15:33:55.871480,36.93634
2021-04-21 15:33:55.902730,51.03073
2021-04-21 15:33:55.918350,53.9102
2021-04-21 15:33:55.933980,55.23534
2021-04-21 15:33:55.949600,55.81282
2021-04-21 15:33:55.965230,56.08191
2021-04-21 15:33:55.980860,56.15172
2021-04-21 15:33:55.996480,55.95934
2021-04-21 15:33:56.012110,55.42799
2021-04-21 15:33:56.027730,54.57283
2021-04-21 15:33:56.043360,53.51651
2021-04-21 15:33:56.058980,52.39659
2021-04-21 15:33:56.074610,51.30649
2021-04-21 15:33:56.090240,50.25111
2021-04-21 15:33:56.105860,49.14279
2021-04-21 15:33:56.121490,47.76073
2021-04-21 15:33:56.137110,45.76132
2021-04-21 15:33:56.152740,42.73228
2021-04-21 15:33:56.168360,38.31013
2021-04-21 15:33:56.183990,32.35411
2021-04-21 15:33:56.199620,25.04288
2021-04-21 15:33:56.215240,16.84477
2021-04-21 15:33:56.230870,8.376495
2021-04-21 15:33:56.246490,0.2063446
2021-04-21 15:33:56.262120,-7.290466
2021-04-21 15:33:56.277740,-14.00348
2021-04-21 15:33:56.293370,-20.0923
2021-04-21 15:33:56.309000,-25.9857
2021-04-21 15:33:56.324620,-32.22885
2021-04-21 15:33:56.340250,-39.31995
2021-04-21 15:33:56.355870,-47.35333
2021-04-21 15:33:56.371500,-55.74126
2021-04-21 15:33:56.387120,-63.1266
2021-04-21 15:33:56.402750,-67.68518
2021-04-21 15:33:56.418380,-67.68533
2021-04-21 15:33:56.434000,-62.23395
2021-04-21 15:33:56.449630,-51.65382
2021-04-21 15:33:56.465250,-37.53317
2021-04-21 15:33:56.480880,-22.19479
2021-04-21 15:33:56.496500,-7.917114
2021-04-21 15:33:56.512130,3.7164
2021-04-21 15:33:56.527760,12.13034
2021-04-21 15:33:56.543380,17.63263
2021-04-21 15:33:56.559010,21.02148
2021-04-21 15:33:56.574630,23.11394
2021-04-21 15:33:56.590260,24.53078
2021-04-21 15:33:56.605880,25.61836
2021-04-21 15:33:56.621510,26.58646
2021-04-21 15:33:56.637140,27.65723
2021-04-21 15:33:56.652760,29.09421
2021-04-21 15:33:56.668390,31.11963
2021-04-21 15:33:56.684010,33.7493
2021-04-21 15:33:56.699640,36.70151
2021-04-21 15:33:56.715260,39.43176
2021-04-21 15:33:56.730890,41.31425
2021-04-21 15:33:56.746520,41.91708
2021-04-21 15:33:56.762140,41.15787
2021-04-21 15:33:56.777770,39.33997
2021-04-21 15:33:56.793390,36.9873
2021-04-21 15:33:56.809020,34.61887
2021-04-21 15:33:56.824640,32.53693
2021-04-21 15:33:56.840270,30.74718
2021-04-21 15:33:56.855900,28.93961
2021-04-21 15:33:56.871520,26.6714
2021-04-21 15:33:56.887150,23.51872
2021-04-21 15:33:56.902770,19.23839
2021-04-21 15:33:56.918400,13.9529
2021-04-21 15:33:56.934030,8.061188
2021-04-21 15:33:56.949650,2.211075
2021-04-21 15:33:56.965280,-2.978607
2021-04-21 15:33:56.980900,-7.127365
2021-04-21 15:33:56.996530,-10.25114
2021-04-21 15:33:57.012150,-12.71828
2021-04-21 15:33:57.027780,-15.12717
2021-04-21 15:33:57.043410,-18.09947
2021-04-21 15:33:57.059030,-22.12964
2021-04-21 15:33:57.074660,-27.54012
2021-04-21 15:33:57.090280,-34.38174
2021-04-21 15:33:57.105910,-42.32266
2021-04-21 15:33:57.121530,-50.48836
2021-04-21 15:33:57.137160,-57.44002
2021-04-21 15:33:57.152790,-61.40889
2021-04-21 15:33:57.168410,-60.83965
2021-04-21 15:33:57.184040,-55.01981
2021-04-21 15:33:57.199660,-44.48361
2021-04-21 15:33:57.215290,-30.9864
2021-04-21 15:33:57.230910,-16.95264
2021-04-21 15:33:57.246540,-4.665665
2021-04-21 15:33:57.262170,4.425964
2021-04-21 15:33:57.277790,9.993637
2021-04-21 15:33:57.293420,12.62543
2021-04-21 15:33:57.309040,13.30534
2021-04-21 15:33:57.324670,12.95721
2021-04-21 15:33:57.340290,12.18272
2021-04-21 15:33:57.355920,11.31372
2021-04-21 15:33:57.371550,10.59431
2021-04-21 15:33:57.387170,10.31839
2021-04-21 15:33:57.402800,10.78499
2021-04-21 15:33:57.418420,12.13721
2021-04-21 15:33:57.434050,14.20004
2021-04-21 15:33:57.449670,16.46092
2021-04-21 15:33:57.465300,18.2764
2021-04-21 15:33:57.480930,19.12668
2021-04-21 15:33:57.496550,18.86935
2021-04-21 15:33:57.512180,17.74954
2021-04-21 15:33:57.527800,16.25008
2021-04-21 15:33:57.543430,14.74135
2021-04-21 15:33:57.559050,13.29271
2021-04-21 15:33:57.574680,11.64662
2021-04-21 15:33:57.590310,9.370346
2021-04-21 15:33:57.605930,6.167313
2021-04-21 15:33:57.621560,2.028732
2021-04-21 15:33:57.637180,-2.705063
2021-04-21 15:33:57.652810,-7.517944
2021-04-21 15:33:57.668430,-11.92485
2021-04-21 15:33:57.684060,-15.66637
2021-04-21 15:33:57.699690,-18.78802
2021-04-21 15:33:57.715310,-21.60562
2021-04-21 15:33:57.730940,-24.62366
2021-04-21 15:33:57.746560,-28.3645
2021-04-21 15:33:57.762190,-33.2803
2021-04-21 15:33:57.777810,-39.52267
2021-04-21 15:33:57.793440,-46.80325
2021-04-21 15:33:57.809070,-54.25473
2021-04-21 15:33:57.824690,-60.48035
2021-04-21 15:33:57.840320,-63.86478
2021-04-21 15:33:57.855940,-63.02856
2021-04-21 15:33:57.871570,-57.36206
2021-04-21 15:33:57.887190,-47.30118
2021-04-21 15:33:57.902820,-34.32053
2021-04-21 15:33:57.918450,-20.43283
2021-04-21 15:33:57.934070,-7.6427
2021-04-21 15:33:57.949700,2.670502
2021-04-21 15:33:57.965320,10.00955
2021-04-21 15:33:57.980950,14.65796
2021-04-21 15:33:57.996570,17.33212
2021-04-21 15:33:58.012200,18.73346
2021-04-21 15:33:58.027830,19.35693
2021-04-21 15:33:58.043450,19.37616
2021-04-21 15:33:58.059080,18.87527
2021-04-21 15:33:58.074700,18.0011
2021-04-21 15:33:58.090330,17.07312
2021-04-21 15:33:58.105950,16.51526
2021-04-21 15:33:58.121580,16.67444
2021-04-21 15:33:58.137210,17.64499
2021-04-21 15:33:58.152830,19.15857
2021-04-21 15:33:58.168460,20.65494
2021-04-21 15:33:58.184080,21.44312
2021-04-21 15:33:58.199710,20.97751
2021-04-21 15:33:58.215330,19.00027
2021-04-21 15:33:58.230960,15.61844
2021-04-21 15:33:58.246590,11.21033
2021-04-21 15:33:58.262210,6.268463
2021-04-21 15:33:58.277840,1.216705
2021-04-21 15:33:58.293460,-3.695251
2021-04-21 15:33:58.309090,-8.414764
2021-04-21 15:33:58.324710,-13.01804
2021-04-21 15:33:58.340340,-17.68341
2021-04-21 15:33:58.355970,-22.6441
2021-04-21 15:33:58.371590,-28.15198
2021-04-21 15:33:58.387220,-34.3811
2021-04-21 15:33:58.402840,-41.31674
2021-04-21 15:33:58.418470,-48.49893
2021-04-21 15:33:58.434090,-54.94241
2021-04-21 15:33:58.449720,-59.23569
2021-04-21 15:33:58.465350,-59.91068
2021-04-21 15:33:58.480970,-55.95981
2021-04-21 15:33:58.496600,-47.28143
2021-04-21 15:33:58.512220,-34.87012
2021-04-21 15:33:58.527850,-20.51727
2021-04-21 15:33:58.543470,-6.319519
2021-04-21 15:33:58.559100,5.990387
2021-04-21 15:33:58.574730,15.43726
2021-04-21 15:33:58.590350,21.9527
2021-04-21 15:33:58.605980,26.08636
2021-04-21 15:33:58.621600,28.71304
2021-04-21 15:33:58.637230,30.62598
2021-04-21 15:33:58.652850,32.35324
2021-04-21 15:33:58.668480,34.1611
2021-04-21 15:33:58.684110,36.09076
2021-04-21 15:33:58.699730,38.0907
2021-04-21 15:33:58.715360,40.08728
2021-04-21 15:33:58.730980,42.00131
2021-04-21 15:33:58.746610,43.70975
2021-04-21 15:33:58.762230,45.02509
2021-04-21 15:33:58.777860,45.74734
2021-04-21 15:33:58.793490,45.70386
2021-04-21 15:33:58.809110,44.86896
2021-04-21 15:33:58.824740,43.38647
2021-04-21 15:33:58.840360,41.49118
2021-04-21 15:33:58.855990,39.35675
2021-04-21 15:33:58.871610,36.97281
2021-04-21 15:33:58.887240,34.06677
2021-04-21 15:33:58.902870,30.23364
2021-04-21 15:33:58.918490,25.18307
2021-04-21 15:33:58.934120,18.92841
2021-04-21 15:33:58.949740,11.92252
2021-04-21 15:33:58.965370,4.876984
2021-04-21 15:33:58.980990,-1.534058
2021-04-21 15:33:58.996620,-6.995392
2021-04-21 15:33:59.012250,-11.75519
2021-04-21 15:33:59.027870,-16.55954
2021-04-21 15:33:59.043500,-22.38705
2021-04-21 15:33:59.059120,-29.9744
2021-04-21 15:33:59.074750,-39.41931
2021-04-21 15:33:59.090370,-49.87906
2021-04-21 15:33:59.106000,-59.64801
2021-04-21 15:33:59.121630,-66.5072
2021-04-21 15:33:59.137250,-68.43829
2021-04-21 15:33:59.152880,-64.28745
2021-04-21 15:33:59.168500,-54.25333
2021-04-21 15:33:59.184130,-39.9054
2021-04-21 15:33:59.199750,-23.70425
2021-04-21 15:33:59.231010,4.473663
2021-04-21 15:33:59.246630,13.61548
2021-04-21 15:33:59.262260,19.40176
2021-04-21 15:33:59.277880,22.76385
2021-04-21 15:33:59.293510,24.83041
2021-04-21 15:33:59.309130,26.45694
2021-04-21 15:33:59.324760,28.09204
2021-04-21 15:33:59.340390,29.8436
2021-04-21 15:33:59.356010,31.64938
2021-04-21 15:33:59.371640,33.48386
2021-04-21 15:33:59.387260,35.39221
2021-04-21 15:33:59.402890,37.47504
2021-04-21 15:33:59.418510,39.73746
2021-04-21 15:33:59.434140,42.02713
2021-04-21 15:33:59.449770,44.05087
2021-04-21 15:33:59.465390,45.42969
2021-04-21 15:33:59.481020,45.85626
2021-04-21 15:33:59.496640,45.19556
2021-04-21 15:33:59.512270,43.52087
2021-04-21 15:33:59.527900,41.08929
2021-04-21 15:33:59.543520,38.21506
2021-04-21 15:33:59.559150,35.18967
2021-04-21 15:33:59.574770,32.14841
2021-04-21 15:33:59.590400,29.08853
2021-04-21 15:33:59.606020,25.83237
2021-04-21 15:33:59.621650,22.17551
2021-04-21 15:33:59.637280,17.96057
2021-04-21 15:33:59.652900,13.16483
2021-04-21 15:33:59.668530,7.94278
2021-04-21 15:33:59.684150,2.567535
2021-04-21 15:33:59.699780,-2.643463
2021-04-21 15:33:59.715400,-7.41806
2021-04-21 15:33:59.731030,-11.65619
2021-04-21 15:33:59.746660,-15.44104
2021-04-21 15:33:59.762280,-19.01935
2021-04-21 15:33:59.777910,-22.77759
2021-04-21 15:33:59.793530,-27.19577
2021-04-21 15:33:59.809160,-32.71576
2021-04-21 15:33:59.824780,-39.56735
2021-04-21 15:33:59.840410,-47.46979
2021-04-21 15:33:59.856040,-55.4082
2021-04-21 15:33:59.871660,-61.69772
2021-04-21 15:33:59.887290,-64.36609
2021-04-21 15:33:59.902910,-61.78278
2021-04-21 15:33:59.918540,-53.34778
2021-04-21 15:33:59.934160,-39.84552
2021-04-21 15:33:59.949790,-23.2475
2021-04-21 15:33:59.965420,-6.098572
2021-04-21 15:33:59.981040,9.293427
2021-04-21 15:33:59.996670,21.50504
2021-04-21 15:34:00.012290,30.19882
2021-04-21 15:34:00.027920,35.9201
2021-04-21 15:34:00.043540,39.62448
2021-04-21 15:34:00.059170,42.22876
2021-04-21 15:34:00.074800,44.33072
2021-04-21 15:34:00.090420,46.19958
2021-04-21 15:34:00.106050,47.88501
2021-04-21 15:34:00.121670,49.328
2021-04-21 15:34:00.137300,50.45831
2021-04-21 15:34:00.152920,51.20538
2021-04-21 15:34:00.168550,51.52722
2021-04-21 15:34:00.184180,51.43002
2021-04-21 15:34:00.199800,50.96768
2021-04-21 15:34:00.215430,50.25732
2021-04-21 15:34:00.231050,49.45682
2021-04-21 15:34:00.246680,48.66138
2021-04-21 15:34:00.262300,47.87631
2021-04-21 15:34:00.277930,46.99701
2021-04-21 15:34:00.293560,45.81342
2021-04-21 15:34:00.309180,44.11621
2021-04-21 15:34:00.324810,41.73724
2021-04-21 15:34:00.340430,38.62305
2021-04-21 15:34:00.356060,34.81851
2021-04-21 15:34:00.371680,30.43042
2021-04-21 15:34:00.387310,25.57239
2021-04-21 15:34:00.402940,20.35849
2021-04-21 15:34:00.434190,9.292572
2021-04-21 15:34:00.449810,3.584137
2021-04-21 15:34:00.465440,-2.192444
2021-04-21 15:34:00.481060,-7.983093
2021-04-21 15:34:00.496690,-13.74005
2021-04-21 15:34:00.512320,-19.36752
2021-04-21 15:34:00.527940,-24.78
2021-04-21 15:34:00.543570,-29.94086
2021-04-21 15:34:00.559190,-34.93558
2021-04-21 15:34:00.574820,-40.00427
2021-04-21 15:34:00.590440,-45.49457
2021-04-21 15:34:00.606070,-51.71103
2021-04-21 15:34:00.621700,-58.7045
2021-04-21 15:34:00.637320,-66.03317
2021-04-21 15:34:00.652950,-72.63766
2021-04-21 15:34:00.668570,-76.97678
2021-04-21 15:34:00.684200,-77.43207
2021-04-21 15:34:00.699820,-72.90506
2021-04-21 15:34:00.715450,-63.31891
2021-04-21 15:34:00.731080,-49.7822
2021-04-21 15:34:00.746700,-34.32809
2021-04-21 15:34:00.762330,-19.2626
2021-04-21 15:34:00.777950,-6.470001
2021-04-21 15:34:00.793580,3.059326
2021-04-21 15:34:00.809200,9.297028
2021-04-21 15:34:00.824830,12.85995
2021-04-21 15:34:00.840460,14.58447
2021-04-21 15:34:00.856080,15.19177
2021-04-21 15:34:00.871710,15.16806
2021-04-21 15:34:00.887330,14.86304
2021-04-21 15:34:00.902960,14.63818
2021-04-21 15:34:00.918580,14.88223
2021-04-21 15:34:00.934210,15.97171
2021-04-21 15:34:00.949840,18.09644
2021-04-21 15:34:00.965460,21.16107
2021-04-21 15:34:00.981090,24.77353
2021-04-21 15:34:00.996710,28.33911
2021-04-21 15:34:01.012340,31.25919
2021-04-21 15:34:01.027960,33.09055
2021-04-21 15:34:01.043590,33.67207
2021-04-21 15:34:01.059220,33.14638
2021-04-21 15:34:01.074840,31.84814
2021-04-21 15:34:01.090470,30.1333
2021-04-21 15:34:01.106090,28.26456
2021-04-21 15:34:01.121720,26.25984
2021-04-21 15:34:01.137340,23.95035
2021-04-21 15:34:01.152970,21.09537
2021-04-21 15:34:01.168600,17.53395
2021-04-21 15:34:01.184220,13.29037
2021-04-21 15:34:01.199850,8.557419
2021-04-21 15:34:01.215470,3.628632
2021-04-21 15:34:01.231100,-1.213547
2021-04-21 15:34:01.246720,-5.80397
2021-04-21 15:34:01.262350,-10.08659
2021-04-21 15:34:01.277980,-14.08324
2021-04-21 15:34:01.293600,-17.90219
2021-04-21 15:34:01.309230,-21.65678
2021-04-21 15:34:01.324850,-25.53694
2021-04-21 15:34:01.340480,-29.80168
2021-04-21 15:34:01.356100,-34.74458
2021-04-21 15:34:01.371730,-40.54288
2021-04-21 15:34:01.387360,-47.02525
2021-04-21 15:34:01.402980,-53.50963
2021-04-21 15:34:01.418610,-58.82999
2021-04-21 15:34:01.434230,-61.54889
2021-04-21 15:34:01.449860,-60.40196
2021-04-21 15:34:01.465480,-54.81335
2021-04-21 15:34:01.481110,-45.14453
2021-04-21 15:34:01.496740,-32.70259
2021-04-21 15:34:01.512360,-19.33681
2021-04-21 15:34:01.527990,-6.889099
2021-04-21 15:34:01.543610,3.315659
2021-04-21 15:34:01.559240,10.70224
2021-04-21 15:34:01.590490,17.80376
2021-04-21 15:34:01.606120,18.53261
2021-04-21 15:34:01.621740,18.01567
2021-04-21 15:34:01.637370,16.63774
2021-04-21 15:34:01.652990,14.76917
2021-04-21 15:34:01.668620,12.85321
2021-04-21 15:34:01.684240,11.32623
2021-04-21 15:34:01.699870,10.5118
2021-04-21 15:34:01.715500,10.52217
2021-04-21 15:34:01.731120,11.20534
2021-04-21 15:34:01.746750,12.26392
2021-04-21 15:34:01.762370,13.35286
2021-04-21 15:34:01.778000,14.18323
2021-04-21 15:34:01.793630,14.52145
2021-04-21 15:34:01.809250,14.18622
2021-04-21 15:34:01.824880,13.0136
2021-04-21 15:34:01.840500,10.89752
2021-04-21 15:34:01.856130,7.864502
2021-04-21 15:34:01.871750,4.075058
2021-04-21 15:34:01.887380,-0.1507416
2021-04-21 15:34:01.903010,-4.469238
2021-04-21 15:34:01.918630,-8.616226
2021-04-21 15:34:01.934260,-12.56194
2021-04-21 15:34:01.949880,-16.49023
2021-04-21 15:34:01.965510,-20.77103
2021-04-21 15:34:01.981130,-25.80608
2021-04-21 15:34:01.996760,-31.87845
2021-04-21 15:34:02.012390,-38.9742
2021-04-21 15:34:02.028010,-46.57832
2021-04-21 15:34:02.043640,-53.63164
2021-04-21 15:34:02.059260,-58.70575
2021-04-21 15:34:02.074890,-60.30673
2021-04-21 15:34:02.090510,-57.41479
2021-04-21 15:34:02.106140,-49.88483
2021-04-21 15:34:02.121770,-38.63144
2021-04-21 15:34:02.137390,-25.40018
2021-04-21 15:34:02.153020,-12.26456
2021-04-21 15:34:02.168640,-1.000031
2021-04-21 15:34:02.184270,7.314575
2021-04-21 15:34:02.199890,12.50168
2021-04-21 15:34:02.215520,15.03606
2021-04-21 15:34:02.231150,15.70135
2021-04-21 15:34:02.246770,15.22974
2021-04-21 15:34:02.262400,14.12927
2021-04-21 15:34:02.278020,12.70346
2021-04-21 15:34:02.293650,11.19125
2021-04-21 15:34:02.309270,9.890106
2021-04-21 15:34:02.324900,9.193207
2021-04-21 15:34:02.340530,9.429733
2021-04-21 15:34:02.356150,10.69533
2021-04-21 15:34:02.371780,12.72383
2021-04-21 15:34:02.387400,14.9035
2021-04-21 15:34:02.403030,16.44102
2021-04-21 15:34:02.418650,16.64758
2021-04-21 15:34:02.434280,15.16823
2021-04-21 15:34:02.449910,12.05328
2021-04-21 15:34:02.465530,7.689941
2021-04-21 15:34:02.481160,2.623688
2021-04-21 15:34:02.496780,-2.648529
2021-04-21 15:34:02.512410,-7.830765
2021-04-21 15:34:02.528030,-12.82967
2021-04-21 15:34:02.543660,-17.70535
2021-04-21 15:34:02.559290,-22.62276
2021-04-21 15:34:02.574910,-27.80492
2021-04-21 15:34:02.590540,-33.49973
2021-04-21 15:34:02.606160,-39.93753
2021-04-21 15:34:02.621790,-47.18044
2021-04-21 15:34:02.637410,-54.88112
2021-04-21 15:34:02.653040,-62.12569
2021-04-21 15:34:02.668670,-67.47046
2021-04-21 15:34:02.684290,-69.27022
2021-04-21 15:34:02.699920,-66.26071
2021-04-21 15:34:02.715540,-58.13321
2021-04-21 15:34:02.731170,-45.80759
2021-04-21 15:34:02.746790,-31.26036
2021-04-21 15:34:02.762420,-16.88965
2021-04-21 15:34:02.778050,-4.769226
2021-04-21 15:34:02.793670,3.940735
2021-04-21 15:34:02.809300,9.148621
2021-04-21 15:34:02.824920,11.58173
2021-04-21 15:34:02.840550,12.33194
2021-04-21 15:34:02.856170,12.40347
2021-04-21 15:34:02.871800,12.48274
2021-04-21 15:34:02.887430,12.92526
2021-04-21 15:34:02.903050,13.81306
2021-04-21 15:34:02.918680,15.07579
2021-04-21 15:34:02.934300,16.53339
2021-04-21 15:34:02.949930,17.97041
2021-04-21 15:34:02.965550,19.18416
2021-04-21 15:34:02.981180,20.024
2021-04-21 15:34:02.996810,20.48247
2021-04-21 15:34:03.012430,20.62822
2021-04-21 15:34:03.028060,20.51317
2021-04-21 15:34:03.043680,20.10739
2021-04-21 15:34:03.059310,19.19543
2021-04-21 15:34:03.074930,17.51727
2021-04-21 15:34:03.090560,14.85918
2021-04-21 15:34:03.106190,11.21605
2021-04-21 15:34:03.121810,6.833023
2021-04-21 15:34:03.137440,2.126801
2021-04-21 15:34:03.153060,-2.42038
2021-04-21 15:34:03.168690,-6.436096
2021-04-21 15:34:03.184310,-9.70723
2021-04-21 15:34:03.199940,-12.24806
2021-04-21 15:34:03.215570,-14.31248
2021-04-21 15:34:03.231190,-16.36491
2021-04-21 15:34:03.246820,-19.08142
2021-04-21 15:34:03.262440,-23.08392
2021-04-21 15:34:03.278070,-28.6499
2021-04-21 15:34:03.293690,-35.353
2021-04-21 15:34:03.309320,-41.89755
2021-04-21 15:34:03.324950,-46.39252
2021-04-21 15:34:03.340570,-46.96988
2021-04-21 15:34:03.356200,-42.50345
2021-04-21 15:34:03.371820,-33.16031
2021-04-21 15:34:03.387450,-20.42731
2021-04-21 15:34:03.403070,-6.596222
2021-04-21 15:34:03.418700,6.051514
2021-04-21 15:34:03.434330,16.00275
2021-04-21 15:34:03.449950,22.81912
2021-04-21 15:34:03.465580,26.99918
2021-04-21 15:34:03.481200,29.46289
2021-04-21 15:34:03.496830,31.04855
2021-04-21 15:34:03.512450,32.20682
2021-04-21 15:34:03.528080,33.02252
2021-04-21 15:34:03.543710,33.46265
2021-04-21 15:34:03.559330,33.56973
2021-04-21 15:34:03.574960,33.57437
2021-04-21 15:34:03.590580,33.75381
2021-04-21 15:34:03.606210,34.2113
2021-04-21 15:34:03.621830,34.76004
2021-04-21 15:34:03.637460,34.96744
2021-04-21 15:34:03.653090,34.38272
2021-04-21 15:34:03.668710,32.81461
2021-04-21 15:34:03.684340,30.47968
2021-04-21 15:34:03.699960,27.90549
2021-04-21 15:34:03.715590,25.69125
2021-04-21 15:34:03.731210,24.18851
2021-04-21 15:34:03.746840,23.30142
2021-04-21 15:34:03.762470,22.50665
2021-04-21 15:34:03.778090,21.07907
2021-04-21 15:34:03.793720,18.39279
2021-04-21 15:34:03.809340,14.19235
2021-04-21 15:34:03.824970,8.718597
2021-04-21 15:34:03.840590,2.584869
2021-04-21 15:34:03.856220,-3.454071
2021-04-21 15:34:03.871850,-8.797211
2021-04-21 15:34:03.887470,-13.22125
2021-04-21 15:34:03.903100,-16.90817
2021-04-21 15:34:03.918720,-20.3808
2021-04-21 15:34:03.934350,-24.28833
2021-04-21 15:34:03.949980,-29.22018
2021-04-21 15:34:03.965600,-35.51044
2021-04-21 15:34:03.981230,-43.0621
2021-04-21 15:34:03.996850,-51.16415
2021-04-21 15:34:04.012480,-58.5087
2021-04-21 15:34:04.028100,-63.33896
2021-04-21 15:34:04.043730,-63.89716
2021-04-21 15:34:04.059360,-59.00769
2021-04-21 15:34:04.074980,-48.60568
2021-04-21 15:34:04.090610,-33.89514
2021-04-21 15:34:04.106230,-17.07654
2021-04-21 15:34:04.121860,-0.6890259
2021-04-21 15:34:04.137480,13.17926
2021-04-21 15:34:04.153110,23.43442
2021-04-21 15:34:04.168740,30.07837
2021-04-21 15:34:04.184360,33.93225
2021-04-21 15:34:04.199990,36.06705
2021-04-21 15:34:04.215610,37.38467
2021-04-21 15:34:04.231240,38.3728
2021-04-21 15:34:04.246860,39.17819
2021-04-21 15:34:04.262490,39.76578
2021-04-21 15:34:04.278120,40.13745
2021-04-21 15:34:04.293740,40.38385
2021-04-21 15:34:04.309370,40.63306
2021-04-21 15:34:04.324990,40.97177
2021-04-21 15:34:04.340620,41.34402
2021-04-21 15:34:04.356240,41.56216
2021-04-21 15:34:04.371870,41.35242
2021-04-21 15:34:04.387500,40.4585
2021-04-21 15:34:04.403120,38.72952
2021-04-21 15:34:04.418750,36.17569
2021-04-21 15:34:04.434370,32.98468
2021-04-21 15:34:04.450000,29.45966
2021-04-21 15:34:04.465620,25.94223
2021-04-21 15:34:04.481250,22.65613
2021-04-21 15:34:04.496880,19.68216
2021-04-21 15:34:04.512500,16.91437
2021-04-21 15:34:04.528130,14.18021
2021-04-21 15:34:04.543750,11.3114
2021-04-21 15:34:04.559380,8.2659
2021-04-21 15:34:04.575000,5.081787
2021-04-21 15:34:04.590630,1.863068
2021-04-21 15:34:04.606260,-1.366058
2021-04-21 15:34:04.621880,-4.672119
2021-04-21 15:34:04.637510,-8.229034
2021-04-21 15:34:04.653130,-12.19858
2021-04-21 15:34:04.668760,-16.68341
2021-04-21 15:34:04.684380,-21.73569
2021-04-21 15:34:04.700010,-27.46677
2021-04-21 15:34:04.715640,-34.10623
2021-04-21 15:34:04.731260,-41.94305
2021-04-21 15:34:04.746890,-51.02615
2021-04-21 15:34:04.762510,-60.82343
2021-04-21 15:34:04.778140,-69.95023
2021-04-21 15:34:04.793760,-76.39334
2021-04-21 15:34:04.809390,-78.04028
2021-04-21 15:34:04.825020,-73.50616
2021-04-21 15:34:04.840640,-62.78241
2021-04-21 15:34:04.856270,-47.34775
2021-04-21 15:34:04.871890,-29.74261
2021-04-21 15:34:04.887520,-12.67484
2021-04-21 15:34:04.903140,1.80719
2021-04-21 15:34:04.918770,12.79077
2021-04-21 15:34:04.934400,20.40759
2021-04-21 15:34:04.950020,25.39218
2021-04-21 15:34:04.965650,28.59909
2021-04-21 15:34:04.981270,30.6622
2021-04-21 15:34:04.996900,31.98834
2021-04-21 15:34:05.012520,32.84125
2021-04-21 15:34:05.028150,33.50122
2021-04-21 15:34:05.043780,34.26068
2021-04-21 15:34:05.059400,35.37552
2021-04-21 15:34:05.075030,36.90521
2021-04-21 15:34:05.090650,38.73486
2021-04-21 15:34:05.106280,40.56677
2021-04-21 15:34:05.121900,42.02353
2021-04-21 15:34:05.137530,42.80093
2021-04-21 15:34:05.153160,42.67453
2021-04-21 15:34:05.168780,41.5773
2021-04-21 15:34:05.184410,39.55795
2021-04-21 15:34:05.200030,36.81409
2021-04-21 15:34:05.215660,33.63376
2021-04-21 15:34:05.231280,30.32065
2021-04-21 15:34:05.246910,27.0802
2021-04-21 15:34:05.262540,23.94199
2021-04-21 15:34:05.278160,20.72192
2021-04-21 15:34:05.293790,17.15112
2021-04-21 15:34:05.309410,13.034
2021-04-21 15:34:05.325040,8.40097
2021-04-21 15:34:05.340660,3.571747
2021-04-21 15:34:05.356290,-1.005188
2021-04-21 15:34:05.371920,-4.917664
2021-04-21 15:34:05.387540,-8.03595
2021-04-21 15:34:05.403170,-10.55112
2021-04-21 15:34:05.418790,-12.92651
2021-04-21 15:34:05.434420,-15.76129
2021-04-21 15:34:05.450040,-19.62698
2021-04-21 15:34:05.465670,-24.94824
2021-04-21 15:34:05.481300,-31.88586
2021-04-21 15:34:05.496920,-40.17392
2021-04-21 15:34:05.512550,-48.9444
2021-04-21 15:34:05.528170,-56.72113
2021-04-21 15:34:05.543800,-61.64667
2021-04-21 15:34:05.559420,-61.97177
2021-04-21 15:34:05.575050,-56.74133
2021-04-21 15:34:05.590680,-46.20221
2021-04-21 15:34:05.606300,-31.87961
2021-04-21 15:34:05.621930,-16.08975
2021-04-21 15:34:05.637550,-1.220581
2021-04-21 15:34:05.653180,10.97409
2021-04-21 15:34:05.668800,19.71262
2021-04-21 15:34:05.684430,25.1297
2021-04-21 15:34:05.700060,27.92175
2021-04-21 15:34:05.715680,28.94382
2021-04-21 15:34:05.731310,28.94254
2021-04-21 15:34:05.746930,28.47937
2021-04-21 15:34:05.762560,27.98041
2021-04-21 15:34:05.778180,27.79218
2021-04-21 15:34:05.793810,28.16843
2021-04-21 15:34:05.809440,29.26205
2021-04-21 15:34:05.825060,31.01056
2021-04-21 15:34:05.840690,33.12936
2021-04-21 15:34:05.856310,35.12595
2021-04-21 15:34:05.871940,36.45667
2021-04-21 15:34:05.887560,36.66507
2021-04-21 15:34:05.903190,35.55905
2021-04-21 15:34:05.918820,33.30719
2021-04-21 15:34:05.934440,30.38794
2021-04-21 15:34:05.950070,27.37405
2021-04-21 15:34:05.965690,24.69589
2021-04-21 15:34:05.981320,22.40811
2021-04-21 15:34:05.996940,20.17282
2021-04-21 15:34:06.012570,17.43558
2021-04-21 15:34:06.028200,13.73492
2021-04-21 15:34:06.043820,8.988556
2021-04-21 15:34:06.059450,3.60202
2021-04-21 15:34:06.075070,-1.684662
2021-04-21 15:34:06.090700,-6.106171
2021-04-21 15:34:06.106320,-9.217468
2021-04-21 15:34:06.121950,-11.11911
2021-04-21 15:34:06.137580,-12.41885
2021-04-21 15:34:06.153200,-14.04327
2021-04-21 15:34:06.168830,-16.91
2021-04-21 15:34:06.184450,-21.67108
2021-04-21 15:34:06.200080,-28.48499
2021-04-21 15:34:06.215700,-36.87247
2021-04-21 15:34:06.231330,-45.70792
2021-04-21 15:34:06.246960,-53.3436
2021-04-21 15:34:06.262580,-57.93832
2021-04-21 15:34:06.278210,-57.94501
2021-04-21 15:34:06.293830,-52.62531
2021-04-21 15:34:06.309460,-42.37326
2021-04-21 15:34:06.325080,-28.66101
2021-04-21 15:34:06.340710,-13.62738
2021-04-21 15:34:06.356340,0.5622864
2021-04-21 15:34:06.371960,12.27365
2021-04-21 15:34:06.387590,20.74371
2021-04-21 15:34:06.403210,25.99088
2021-04-21 15:34:06.418840,28.58273
2021-04-21 15:34:06.434460,29.31979
2021-04-21 15:34:06.450090,28.96918
2021-04-21 15:34:06.465720,28.21021
2021-04-21 15:34:06.481340,27.57501
2021-04-21 15:34:06.496970,27.46503
2021-04-21 15:34:06.512590,28.1348
2021-04-21 15:34:06.528220,29.62955
2021-04-21 15:34:06.543840,31.7337
2021-04-21 15:34:06.559470,34.02615
2021-04-21 15:34:06.575100,35.9617
2021-04-21 15:34:06.590720,37.02106
2021-04-21 15:34:06.606350,36.9071
2021-04-21 15:34:06.621970,35.61963
2021-04-21 15:34:06.637600,33.44583
2021-04-21 15:34:06.653230,30.84149
2021-04-21 15:34:06.668850,28.17426
2021-04-21 15:34:06.684480,25.5567
2021-04-21 15:34:06.700100,22.79904
2021-04-21 15:34:06.715730,19.49222
2021-04-21 15:34:06.731350,15.26923
2021-04-21 15:34:06.746980,9.997223
2021-04-21 15:34:06.762610,3.949677
2021-04-21 15:34:06.778230,-2.296143
2021-04-21 15:34:06.793860,-8.048492
2021-04-21 15:34:06.809480,-12.75949
2021-04-21 15:34:06.825110,-16.24167
2021-04-21 15:34:06.840730,-18.73227
2021-04-21 15:34:06.856360,-20.80911
2021-04-21 15:34:06.871990,-23.25601
2021-04-21 15:34:06.887610,-26.76202
2021-04-21 15:34:06.903240,-31.74588
2021-04-21 15:34:06.918860,-38.13348
2021-04-21 15:34:06.934490,-45.24158
2021-04-21 15:34:06.950110,-51.78479
2021-04-21 15:34:06.965740,-56.07571
2021-04-21 15:34:06.981370,-56.44006
2021-04-21 15:34:06.996990,-51.76404
2021-04-21 15:34:07.012620,-41.95938
2021-04-21 15:34:07.028240,-28.12274
2021-04-21 15:34:07.043870,-12.29388
2021-04-21 15:34:07.059490,3.151367
2021-04-21 15:34:07.075120,16.23523
2021-04-21 15:34:07.090750,25.87256
2021-04-21 15:34:07.106370,31.99353
2021-04-21 15:34:07.122000,35.24643
2021-04-21 15:34:07.137620,36.51694
2021-04-21 15:34:07.153250,36.56958
2021-04-21 15:34:07.168870,35.91391
2021-04-21 15:34:07.184500,34.8927
2021-04-21 15:34:07.200130,33.87759
2021-04-21 15:34:07.215750,33.27744
2021-04-21 15:34:07.231380,33.44482
2021-04-21 15:34:07.247000,34.46768
2021-04-21 15:34:07.262630,36.07706
2021-04-21 15:34:07.278250,37.6564
2021-04-21 15:34:07.293880,38.51868
2021-04-21 15:34:07.309510,38.16693
2021-04-21 15:34:07.325130,36.5004
2021-04-21 15:34:07.340760,33.81052
2021-04-21 15:34:07.356380,30.61694
2021-04-21 15:34:07.372010,27.39157
2021-04-21 15:34:07.387630,24.35799
2021-04-21 15:34:07.403260,21.39148
2021-04-21 15:34:07.418890,18.12372
2021-04-21 15:34:07.434510,14.16566
2021-04-21 15:34:07.450140,9.297882
2021-04-21 15:34:07.465760,3.636841
2021-04-21 15:34:07.481390,-2.403717
2021-04-21 15:34:07.497010,-8.225708
2021-04-21 15:34:07.512640,-13.35371
2021-04-21 15:34:07.528270,-17.60878
2021-04-21 15:34:07.543890,-21.22145
2021-04-21 15:34:07.559520,-24.78317
2021-04-21 15:34:07.575140,-29.01514
2021-04-21 15:34:07.590770,-34.44153
2021-04-21 15:34:07.606390,-41.04247
2021-04-21 15:34:07.622020,-48.07387
2021-04-21 15:34:07.637650,-54.11552
2021-04-21 15:34:07.653270,-57.40344
2021-04-21 15:34:07.668900,-56.399
2021-04-21 15:34:07.684520,-50.39917
2021-04-21 15:34:07.700150,-39.8763
2021-04-21 15:34:07.715770,-26.42023
2021-04-21 15:34:07.731400,-12.27649
2021-04-21 15:34:07.747030,0.3988647
2021-04-21 15:34:07.762650,10.12857
2021-04-21 15:34:07.778280,16.45003
2021-04-21 15:34:07.793900,19.74854
2021-04-21 15:34:07.809530,20.85536
2021-04-21 15:34:07.825150,20.59908
2021-04-21 15:34:07.840780,19.52179
2021-04-21 15:34:07.856410,17.90936
2021-04-21 15:34:07.872030,15.95175
2021-04-21 15:34:07.887660,13.9628
2021-04-21 15:34:07.903280,12.36259
2021-04-21 15:34:07.918910,11.57768
2021-04-21 15:34:07.934530,11.8047
2021-04-21 15:34:07.950160,12.89413
2021-04-21 15:34:07.965790,14.34315
2021-04-21 15:34:07.981410,15.47504
2021-04-21 15:34:07.997040,15.71605
2021-04-21 15:34:08.012660,14.76024
2021-04-21 15:34:08.028290,12.63094
2021-04-21 15:34:08.043910,9.598404
2021-04-21 15:34:08.059540,6.06073
2021-04-21 15:34:08.075170,2.344368
2021-04-21 15:34:08.090790,-1.333786
2021-04-21 15:34:08.106420,-4.912926
2021-04-21 15:34:08.122040,-8.449989
2021-04-21 15:34:08.137670,-12.10907
2021-04-21 15:34:08.153290,-16.1171
2021-04-21 15:34:08.168920,-20.71188
2021-04-21 15:34:08.184550,-26.08942
2021-04-21 15:34:08.200170,-32.24065
2021-04-21 15:34:08.215800,-38.81637
2021-04-21 15:34:08.231420,-45.02417
2021-04-21 15:34:08.247050,-49.68666
2021-04-21 15:34:08.262670,-51.50618
2021-04-21 15:34:08.278300,-49.44194
2021-04-21 15:34:08.293930,-43.11677
2021-04-21 15:34:08.309550,-33.0635
2021-04-21 15:34:08.325180,-20.64017
2021-04-21 15:34:08.340800,-7.665962
2021-04-21 15:34:08.356430,4.047424
2021-04-21 15:34:08.372050,13.1759
2021-04-21 15:34:08.387680,19.10484
2021-04-21 15:34:08.403310,21.91084
2021-04-21 15:34:08.418930,22.13299
2021-04-21 15:34:08.434560,20.52879
2021-04-21 15:34:08.450180,17.86478
2021-04-21 15:34:08.465810,14.87437
2021-04-21 15:34:08.481430,12.1885
2021-04-21 15:34:08.497060,10.31618
2021-04-21 15:34:08.512690,9.537319
2021-04-21 15:34:08.528310,9.806492
2021-04-21 15:34:08.543940,10.69529
2021-04-21 15:34:08.559560,11.5285
2021-04-21 15:34:08.575190,11.60647
2021-04-21 15:34:08.590810,10.44962
2021-04-21 15:34:08.606440,7.92543
2021-04-21 15:34:08.622070,4.177624
2021-04-21 15:34:08.637690,-0.496048
2021-04-21 15:34:08.653320,-5.812538
2021-04-21 15:34:08.668940,-11.5151
2021-04-21 15:34:08.684570,-17.3177
2021-04-21 15:34:08.700190,-22.89859
2021-04-21 15:34:08.715820,-27.96828
2021-04-21 15:34:08.731450,-32.47346
2021-04-21 15:34:08.747070,-36.66336
2021-04-21 15:34:08.762700,-40.96336
2021-04-21 15:34:08.778320,-45.57423
2021-04-21 15:34:08.793950,-50.06157
2021-04-21 15:34:08.809580,-53.19073
2021-04-21 15:34:08.825200,-53.2743
2021-04-21 15:34:08.840830,-48.87109
2021-04-21 15:34:08.856450,-39.58958
2021-04-21 15:34:08.872080,-26.45598
2021-04-21 15:34:08.887700,-11.74761
2021-04-21 15:34:08.903330,1.818213
2021-04-21 15:34:08.918960,12.03965
2021-04-21 15:34:08.934580,17.98724
2021-04-21 15:34:08.950210,20.08668
2021-04-21 15:34:08.965830,19.71745
2021-04-21 15:34:08.981460,18.45827
2021-04-21 15:34:08.997080,17.45493
2021-04-21 15:34:09.012710,17.10681
2021-04-21 15:34:09.028340,17.25567
2021-04-21 15:34:09.043960,17.42038
2021-04-21 15:34:09.059590,17.09458
2021-04-21 15:34:09.075210,15.82892
2021-04-21 15:34:09.090840,13.245
2021-04-21 15:34:09.106460,9.145287
2021-04-21 15:34:09.122090,4.095641
2021-04-21 15:34:09.137720,0.1186968
2021-04-21 15:34:09.153340,0.8643889
2021-04-21 15:34:09.168970,10.6932
2021-04-21 15:34:09.184590,32.66347
2021-04-21 15:34:09.200220,66.26325
2021-04-21 15:34:09.215840,106.4097
2021-04-21 15:34:09.231470,144.4374
2021-04-21 15:34:09.247100,170.9277
2021-04-21 15:34:09.262720,179.0072
2021-04-21 15:34:09.278350,166.6927
2021-04-21 15:34:09.293970,137.0974
2021-04-21 15:34:09.309600,96.82309
2021-04-21 15:34:09.325220,53.47268
2021-04-21 15:34:09.340850,13.56099
2021-04-21 15:34:09.356480,-18.42639
2021-04-21 15:34:09.372100,-39.97107
2021-04-21 15:34:09.387730,-50.05939
2021-04-21 15:34:09.403350,-48.8825
2021-04-21 15:34:09.418980,-37.87712
2021-04-21 15:34:09.434600,-19.77175
2021-04-21 15:34:09.450230,1.669502
2021-04-21 15:34:09.465860,22.37479
2021-04-21 15:34:09.481480,38.83664
2021-04-21 15:34:09.497110,48.85385
2021-04-21 15:34:09.512730,51.89191
2021-04-21 15:34:09.528360,49.06812
2021-04-21 15:34:09.543980,42.58787
2021-04-21 15:34:09.559610,34.90972
2021-04-21 15:34:09.575240,27.84389
2021-04-21 15:34:09.590860,21.9944
2021-04-21 15:34:09.606490,16.77997
2021-04-21 15:34:09.622110,11.0806
2021-04-21 15:34:09.637740,4.181
2021-04-21 15:34:09.653360,-3.72525
2021-04-21 15:34:09.668990,-11.43535
2021-04-21 15:34:09.684620,-17.33676
2021-04-21 15:34:09.700240,-20.21017
2021-04-21 15:34:09.715870,-19.80032
2021-04-21 15:34:09.731490,-16.97354
2021-04-21 15:34:09.747120,-13.33484
2021-04-21 15:34:09.762740,-10.61917
2021-04-21 15:34:09.778370,-10.10139
2021-04-21 15:34:09.794000,-12.25008
2021-04-21 15:34:09.809620,-16.71922
2021-04-21 15:34:09.825250,-22.59535
2021-04-21 15:34:09.840870,-28.7339
2021-04-21 15:34:09.856500,-34.13451
2021-04-21 15:34:09.872120,-38.20174
2021-04-21 15:34:09.887750,-41.01678
2021-04-21 15:34:09.903380,-43.35236
2021-04-21 15:34:09.919000,-46.59244
2021-04-21 15:34:09.934630,-52.47916
2021-04-21 15:34:09.950250,-62.4873
2021-04-21 15:34:09.965880,-76.81384
2021-04-21 15:34:09.981500,-93.47153
2021-04-21 15:34:09.997130,-108.1984
2021-04-21 15:34:10.012760,-115.588
2021-04-21 15:34:10.028380,-111.2892
2021-04-21 15:34:10.044010,-94.27631
2021-04-21 15:34:10.059630,-67.85623
2021-04-21 15:34:10.075260,-38.59781
2021-04-21 15:34:10.090880,-13.58746
2021-04-21 15:34:10.106510,2.614136
2021-04-21 15:34:10.122140,9.712372
2021-04-21 15:34:10.137760,11.11798
2021-04-21 15:34:10.153390,11.70798
2021-04-21 15:34:10.169010,15.18832
2021-04-21 15:34:10.184640,22.58707
2021-04-21 15:34:10.200260,32.48294
2021-04-21 15:34:10.215890,42.5011
2021-04-21 15:34:10.231520,50.86893
2021-04-21 15:34:10.247140,57.15106
2021-04-21 15:34:10.262770,61.90976
2021-04-21 15:34:10.278390,65.9014
2021-04-21 15:34:10.294020,69.50027
2021-04-21 15:34:10.309640,72.62842
2021-04-21 15:34:10.325270,74.9863
2021-04-21 15:34:10.340900,76.3396
2021-04-21 15:34:10.356520,76.48306
2021-04-21 15:34:10.372150,74.99887
2021-04-21 15:34:10.387770,71.00052
2021-04-21 15:34:10.403400,63.11465
2021-04-21 15:34:10.419020,50.00208
2021-04-21 15:34:10.434650,30.95325
2021-04-21 15:34:10.450280,6.441162
2021-04-21 15:34:10.465900,-21.77505
2021-04-21 15:34:10.481530,-51.15213
2021-04-21 15:34:10.497150,-79.19577
2021-04-21 15:34:10.512780,-104.2372
2021-04-21 15:34:10.528400,-125.7252
2021-04-21 15:34:10.544030,-143.8208
2021-04-21 15:34:10.559660,-158.5725
2021-04-21 15:34:10.575280,-169.2372
2021-04-21 15:34:10.590910,-174.2844
2021-04-21 15:34:10.606530,-172.0798
2021-04-21 15:34:10.622160,-161.9819
2021-04-21 15:34:10.637780,-145.0705
2021-04-21 15:34:10.653410,-124.1436
2021-04-21 15:34:10.669040,-102.7198
2021-04-21 15:34:10.684660,-83.67798
2021-04-21 15:34:10.700290,-68.15771
2021-04-21 15:34:10.715910,-55.3027
2021-04-21 15:34:10.731540,-43.07272
2021-04-21 15:34:10.747160,-29.57172
2021-04-21 15:34:10.762790,-14.10889
2021-04-21 15:34:10.778420,2.315796
2021-04-21 15:34:10.794040,17.48434
2021-04-21 15:34:10.809670,29.11966
2021-04-21 15:34:10.825290,36.04803
2021-04-21 15:34:10.840920,38.76096
2021-04-21 15:34:10.856540,39.10138
2021-04-21 15:34:10.872170,39.33545
2021-04-21 15:34:10.887800,41.20776
2021-04-21 15:34:10.903420,45.31064
2021-04-21 15:34:10.919050,51.07703
2021-04-21 15:34:10.934670,57.27475
2021-04-21 15:34:10.950300,62.58865
2021-04-21 15:34:10.965920,66.12848
2021-04-21 15:34:10.981550,67.59735
2021-04-21 15:34:10.997180,67.29382
2021-04-21 15:34:11.012800,65.86917
2021-04-21 15:34:11.028430,64.07468
2021-04-21 15:34:11.044050,62.50662
2021-04-21 15:34:11.059680,61.51297
2021-04-21 15:34:11.075300,61.1427
2021-04-21 15:34:11.090930,61.23206
2021-04-21 15:34:11.106560,61.37115
2021-04-21 15:34:11.122180,60.87976
2021-04-21 15:34:11.137810,58.76578
2021-04-21 15:34:11.153430,53.82291
2021-04-21 15:34:11.169060,45.00455
2021-04-21 15:34:11.184680,32.01395
2021-04-21 15:34:11.200310,15.80453
2021-04-21 15:34:11.215940,-1.304169
2021-04-21 15:34:11.231560,-16.2287
2021-04-21 15:34:11.247190,-26.37894
2021-04-21 15:34:11.262810,-30.61829
2021-04-21 15:34:11.278440,-29.73538
2021-04-21 15:34:11.294070,-26.05789
2021-04-21 15:34:11.309690,-22.44992
2021-04-21 15:34:11.325320,-21.34064
2021-04-21 15:34:11.340940,-24.14795
2021-04-21 15:34:11.356570,-31.31247
2021-04-21 15:34:11.372190,-42.67133
2021-04-21 15:34:11.387820,-57.60867
2021-04-21 15:34:11.403450,-74.91873
2021-04-21 15:34:11.419070,-92.39008
2021-04-21 15:34:11.434700,-106.6718
2021-04-21 15:34:11.450320,-113.8546
2021-04-21 15:34:11.465950,-110.8369
2021-04-21 15:34:11.481570,-96.93549
2021-04-21 15:34:11.497200,-74.88498
2021-04-21 15:34:11.512830,-50.36859
2021-04-21 15:34:11.528450,-30.08862
2021-04-21 15:34:11.544080,-19.19711
2021-04-21 15:34:11.559700,-19.42746
2021-04-21 15:34:11.575330,-28.83157
2021-04-21 15:34:11.590950,-43.25778
2021-04-21 15:34:11.606580,-58.69928
2021-04-21 15:34:11.622210,-73.04614
2021-04-21 15:34:11.637830,-86.46182
2021-04-21 15:34:11.653460,-100.371
2021-04-21 15:34:11.669080,-115.8568
2021-04-21 15:34:11.684710,-132.7108
2021-04-21 15:34:11.700330,-149.4928
2021-04-21 15:34:11.715960,-164.5839
2021-04-21 15:34:11.731590,-177.0974
2021-04-21 15:34:11.747210,-187.2502
2021-04-21 15:34:11.762840,-195.8134
2021-04-21 15:34:11.778460,-203.3759
2021-04-21 15:34:11.794090,-209.8756
2021-04-21 15:34:11.809710,-214.6913
2021-04-21 15:34:11.825340,-217.0459
2021-04-21 15:34:11.840970,-216.3233
2021-04-21 15:34:11.856590,-211.9422
2021-04-21 15:34:11.872220,-203.0837
2021-04-21 15:34:11.887840,-188.5119
2021-04-21 15:34:11.903470,-167.0278
2021-04-21 15:34:11.919090,-138.3818
2021-04-21 15:34:11.934720,-104.1293
2021-04-21 15:34:11.950350,-67.60104
2021-04-21 15:34:11.965970,-32.89584
2021-04-21 15:34:11.981600,-3.135284
2021-04-21 15:34:11.997220,20.75023
2021-04-21 15:34:12.012850,40.10936
2021-04-21 15:34:12.028470,57.25615
2021-04-21 15:34:12.044100,73.69096
2021-04-21 15:34:12.059730,88.92484
2021-04-21 15:34:12.075350,100.8255
2021-04-21 15:34:12.090980,106.9673
2021-04-21 15:34:12.106600,106.1319
2021-04-21 15:34:12.122230,98.9756
2021-04-21 15:34:12.137850,87.3065
2021-04-21 15:34:12.153480,72.7223
2021-04-21 15:34:12.169110,55.72212
2021-04-21 15:34:12.184730,35.94637
2021-04-21 15:34:12.200360,13.53085
2021-04-21 15:34:12.215980,-9.500294
2021-04-21 15:34:12.231610,-28.90082
2021-04-21 15:34:12.247230,-39.38972
2021-04-21 15:34:12.262860,-36.68954
2021-04-21 15:34:12.278490,-19.32632
2021-04-21 15:34:12.294110,10.77259
2021-04-21 15:34:12.309740,49.13336
2021-04-21 15:34:12.325360,90.42159
2021-04-21 15:34:12.340990,130.0836
2021-04-21 15:34:12.356610,165.2683
2021-04-21 15:34:12.372240,194.9306
2021-04-21 15:34:12.387870,219.2136
2021-04-21 15:34:12.403490,238.8379
2021-04-21 15:34:12.419120,254.4622
2021-04-21 15:34:12.434740,266.3763
2021-04-21 15:34:12.450370,274.4642
2021-04-21 15:34:12.465990,278.4647
2021-04-21 15:34:12.481620,278.3428
2021-04-21 15:34:12.497250,274.617
2021-04-21 15:34:12.512870,268.4093
2021-04-21 15:34:12.528500,261.0944
2021-04-21 15:34:12.544120,253.7509
2021-04-21 15:34:12.559750,246.5873
2021-04-21 15:34:12.575370,238.7981
2021-04-21 15:34:12.591000,228.9192
2021-04-21 15:34:12.606630,215.5314
2021-04-21 15:34:12.622250,197.9968
2021-04-21 15:34:12.637880,176.8188
2021-04-21 15:34:12.653500,153.5676
2021-04-21 15:34:12.669130,130.2989
2021-04-21 15:34:12.684750,108.8692
2021-04-21 15:34:12.700380,90.4261
2021-04-21 15:34:12.716010,75.12759
2021-04-21 15:34:12.731630,62.13028
2021-04-21 15:34:12.747260,49.74447
2021-04-21 15:34:12.762880,35.90372
2021-04-21 15:34:12.778510,18.65133
2021-04-21 15:34:12.794130,-3.07196
2021-04-21 15:34:12.809760,-28.63408
2021-04-21 15:34:12.825390,-55.17873
2021-04-21 15:34:12.841010,-77.96458
2021-04-21 15:34:12.856640,-91.77067
2021-04-21 15:34:12.872260,-92.95016
2021-04-21 15:34:12.887890,-81.24959
2021-04-21 15:34:12.903510,-60.15647
2021-04-21 15:34:12.919140,-35.57685
2021-04-21 15:34:12.934770,-13.29004
2021-04-21 15:34:12.950390,3.429611
2021-04-21 15:34:12.966020,14.76208
2021-04-21 15:34:12.981640,23.43507
2021-04-21 15:34:12.997270,32.70948
2021-04-21 15:34:13.012890,44.54747
2021-04-21 15:34:13.028520,58.9453
2021-04-21 15:34:13.044150,74.64462
2021-04-21 15:34:13.059770,90.37388
2021-04-21 15:34:13.075400,105.7271
2021-04-21 15:34:13.091020,121.0172
2021-04-21 15:34:13.106650,136.5254
2021-04-21 15:34:13.122270,151.6959
2021-04-21 15:34:13.137900,164.9148
2021-04-21 15:34:13.153530,174.1361
2021-04-21 15:34:13.169150,177.5982
2021-04-21 15:34:13.184780,174.3508
2021-04-21 15:34:13.200400,164.4107
2021-04-21 15:34:13.216030,148.6216
2021-04-21 15:34:13.231650,128.2797
2021-04-21 15:34:13.247280,104.7576
2021-04-21 15:34:13.262910,79.15016
2021-04-21 15:34:13.278530,52.03398
2021-04-21 15:34:13.294160,23.55734
2021-04-21 15:34:13.309780,-6.228912
2021-04-21 15:34:13.325410,-36.84979
2021-04-21 15:34:13.341030,-66.94635
2021-04-21 15:34:13.356660,-94.29028
2021-04-21 15:34:13.372290,-116.3678
2021-04-21 15:34:13.387910,-131.3893
2021-04-21 15:34:13.403540,-139.226
2021-04-21 15:34:13.419160,-141.8022
2021-04-21 15:34:13.434790,-142.5813
2021-04-21 15:34:13.450410,-145.3401
2021-04-21 15:34:13.466040,-152.6835
2021-04-21 15:34:13.481670,-164.93
2021-04-21 15:34:13.497290,-179.9619
2021-04-21 15:34:13.512920,-194.0499
2021-04-21 15:34:13.528540,-203.2246
2021-04-21 15:34:13.544170,-204.7416
2021-04-21 15:34:13.559790,-197.9877
2021-04-21 15:34:13.575420,-184.4925
2021-04-21 15:34:13.591050,-167.3517
2021-04-21 15:34:13.606670,-150.1645
2021-04-21 15:34:13.622300,-136.1203
2021-04-21 15:34:13.637920,-127.1729
2021-04-21 15:34:13.653550,-123.4984
2021-04-21 15:34:13.669180,-123.1997
2021-04-21 15:34:13.684800,-122.6047
2021-04-21 15:34:13.700430,-117.4915
2021-04-21 15:34:13.716050,-104.8154
2021-04-21 15:34:13.731680,-84.40637
2021-04-21 15:34:13.747300,-59.52716
2021-04-21 15:34:13.762930,-35.83136
2021-04-21 15:34:13.778560,-19.00183
2021-04-21 15:34:13.794180,-12.23303
2021-04-21 15:34:13.809810,-14.81427
2021-04-21 15:34:13.825430,-22.80194
2021-04-21 15:34:13.841060,-31.2074
2021-04-21 15:34:13.856680,-36.54706
2021-04-21 15:34:13.872310,-38.36707
2021-04-21 15:34:13.887940,-38.9845
2021-04-21 15:34:13.903560,-41.80884
2021-04-21 15:34:13.919190,-49.33386
2021-04-21 15:34:13.934810,-61.95758
2021-04-21 15:34:13.950440,-78.1778
2021-04-21 15:34:13.966060,-95.82574
2021-04-21 15:34:13.981690,-113.4267
2021-04-21 15:34:13.997320,-130.8731
2021-04-21 15:34:14.012940,-149.1979
2021-04-21 15:34:14.028570,-169.5359
2021-04-21 15:34:14.044190,-191.9089
2021-04-21 15:34:14.059820,-214.5568
2021-04-21 15:34:14.075440,-234.1624
2021-04-21 15:34:14.091070,-246.8027
2021-04-21 15:34:14.106700,-249.27
2021-04-21 15:34:14.122320,-239.9871
2021-04-21 15:34:14.137950,-219.0982
2021-04-21 15:34:14.153570,-187.803
2021-04-21 15:34:14.169200,-147.5748
2021-04-21 15:34:14.184820,-99.93582
2021-04-21 15:34:14.200450,-47.04453
2021-04-21 15:34:14.216080,7.520752
2021-04-21 15:34:14.231700,58.80484
2021-04-21 15:34:14.247330,101.594
2021-04-21 15:34:14.262950,132.4443
2021-04-21 15:34:14.278580,151.363
2021-04-21 15:34:14.294200,161.8631
2021-04-21 15:34:14.309830,169.2522
2021-04-21 15:34:14.325460,177.8285
2021-04-21 15:34:14.341080,188.6743
2021-04-21 15:34:14.356710,199.3112
2021-04-21 15:34:14.372330,205.3493
2021-04-21 15:34:14.387960,203.0876
2021-04-21 15:34:14.403580,191.4605
2021-04-21 15:34:14.419210,172.3061
2021-04-21 15:34:14.434840,149.1288
2021-04-21 15:34:14.450460,125.317
2021-04-21 15:34:14.466090,103.0536
2021-04-21 15:34:14.481710,83.24887
2021-04-21 15:34:14.497340,66.31451
2021-04-21 15:34:14.512960,52.84183
2021-04-21 15:34:14.528590,43.68243
2021-04-21 15:34:14.544220,39.487
2021-04-21 15:34:14.559840,39.97653
2021-04-21 15:34:14.575470,43.65625
2021-04-21 15:34:14.591090,48.15836
2021-04-21 15:34:14.606720,51.13129
2021-04-21 15:34:14.622340,51.21426
2021-04-21 15:34:14.637970,48.45261
2021-04-21 15:34:14.653600,44.05042
2021-04-21 15:34:14.669220,39.57651
2021-04-21 15:34:14.684850,36.24173
2021-04-21 15:34:14.700470,34.38351
2021-04-21 15:34:14.716100,33.59778
2021-04-21 15:34:14.731720,33.14517
2021-04-21 15:34:14.747350,32.4046
2021-04-21 15:34:14.762980,31.04749
2021-04-21 15:34:14.778600,29.01935
2021-04-21 15:34:14.794230,26.34714
2021-04-21 15:34:14.809850,23.13303
2021-04-21 15:34:14.825480,19.58707
2021-04-21 15:34:14.841100,16.08408
2021-04-21 15:34:14.856730,13.13016
2021-04-21 15:34:14.872360,11.14932
2021-04-21 15:34:14.887980,10.22803
2021-04-21 15:34:14.903610,9.968292
2021-04-21 15:34:14.919230,9.629303
2021-04-21 15:34:14.934860,8.406708
2021-04-21 15:34:14.950480,5.802612
2021-04-21 15:34:14.966110,1.919128
2021-04-21 15:34:14.981740,-2.642059
2021-04-21 15:34:14.997360,-6.998199
2021-04-21 15:34:15.012990,-10.40762
2021-04-21 15:34:15.028610,-12.56213
2021-04-21 15:34:15.044240,-13.6546
2021-04-21 15:34:15.059860,-14.25327
2021-04-21 15:34:15.075490,-15.00806
2021-04-21 15:34:15.091120,-16.31265
2021-04-21 15:34:15.106740,-18.17468
2021-04-21 15:34:15.122370,-20.30774
2021-04-21 15:34:15.137990,-22.26453
2021-04-21 15:34:15.153620,-23.71628
2021-04-21 15:34:15.169240,-24.55936
2021-04-21 15:34:15.184870,-24.90775
2021-04-21 15:34:15.200500,-24.97464
2021-04-21 15:34:15.216120,-24.91519
2021-04-21 15:34:15.231750,-24.75522
2021-04-21 15:34:15.247370,-24.37085
2021-04-21 15:34:15.263000,-23.60107
2021-04-21 15:34:15.278620,-22.32941
2021-04-21 15:34:15.294250,-20.62097
2021-04-21 15:34:15.309880,-18.67676
2021-04-21 15:34:15.325500,-16.74313
2021-04-21 15:34:15.341130,-14.94986
2021-04-21 15:34:15.356750,-13.17581
2021-04-21 15:34:15.372380,-11.07956
2021-04-21 15:34:15.388000,-8.205811
2021-04-21 15:34:15.403630,-4.261963
2021-04-21 15:34:15.419260,0.8469849
2021-04-21 15:34:15.434880,7.002289
2021-04-21 15:34:15.450510,14.02371
2021-04-21 15:34:15.466130,21.80917
2021-04-21 15:34:15.481760,30.27893
2021-04-21 15:34:15.497380,39.2695
2021-04-21 15:34:15.513010,48.38858
2021-04-21 15:34:15.528640,57.09052
2021-04-21 15:34:15.544260,64.88461
2021-04-21 15:34:15.559890,71.60944
2021-04-21 15:34:15.575510,77.45651
2021-04-21 15:34:15.591140,82.75751
2021-04-21 15:34:15.606760,87.53726
2021-04-21 15:34:15.622390,91.15393
2021-04-21 15:34:15.638020,92.33591
2021-04-21 15:34:15.653640,89.61719
2021-04-21 15:34:15.669270,82.02878
2021-04-21 15:34:15.684890,69.62228
2021-04-21 15:34:15.700520,53.55405
2021-04-21 15:34:15.716140,35.65552
2021-04-21 15:34:15.731770,17.72888
2021-04-21 15:34:15.747400,0.9397583
2021-04-21 15:34:15.763020,-14.38028
2021-04-21 15:34:15.778650,-28.49789
2021-04-21 15:34:15.794270,-41.78497
2021-04-21 15:34:15.809900,-54.30688
2021-04-21 15:34:15.825520,-65.7135
2021-04-21 15:34:15.841150,-75.45883
2021-04-21 15:34:15.856780,-83.19196
2021-04-21 15:34:15.872400,-89.01498
2021-04-21 15:34:15.888030,-93.52148
2021-04-21 15:34:15.903650,-97.55026
2021-04-21 15:34:15.919280,-101.791
2021-04-21 15:34:15.934910,-106.5515
2021-04-21 15:34:15.950530,-111.6636
2021-04-21 15:34:15.966160,-116.6127
2021-04-21 15:34:15.981780,-120.8079
2021-04-21 15:34:15.997410,-123.7388
2021-04-21 15:34:16.013030,-124.9659
2021-04-21 15:34:16.028660,-124.091
2021-04-21 15:34:16.059910,-114.5612
2021-04-21 15:34:16.075540,-105.6666
2021-04-21 15:34:16.091160,-94.55801
2021-04-21 15:34:16.106790,-82.16483
2021-04-21 15:34:16.122410,-69.60812
2021-04-21 15:34:16.138040,-57.7868
2021-04-21 15:34:16.153670,-47.06717
2021-04-21 15:34:16.169290,-37.29135
2021-04-21 15:34:16.184920,-27.94702
2021-04-21 15:34:16.200540,-18.52475
2021-04-21 15:34:16.216170,-8.788269
2021-04-21 15:34:16.231790,1.162048
2021-04-21 15:34:16.247420,11.10983
2021-04-21 15:34:16.263050,20.92545
2021-04-21 15:34:16.278670,30.71182
2021-04-21 15:34:16.294300,40.77838
2021-04-21 15:34:16.309920,51.46304
2021-04-21 15:34:16.325550,62.99887
2021-04-21 15:34:16.341170,75.53119
2021-04-21 15:34:16.356800,89.28217
2021-04-21 15:34:16.372430,104.5934
2021-04-21 15:34:16.388050,121.714
2021-04-21 15:34:16.403680,140.2528
2021-04-21 15:34:16.419300,158.7196
2021-04-21 15:34:16.434930,174.4998
2021-04-21 15:34:16.450550,184.6216
2021-04-21 15:34:16.466180,186.9869
2021-04-21 15:34:16.481810,181.4788
2021-04-21 15:34:16.497430,170.1765
2021-04-21 15:34:16.513060,156.4786
2021-04-21 15:34:16.528680,143.4941
2021-04-21 15:34:16.544310,132.6537
2021-04-21 15:34:16.559930,123.2996
2021-04-21 15:34:16.575560,113.4205
2021-04-21 15:34:16.591190,101.0184
2021-04-21 15:34:16.606810,85.354
2021-04-21 15:34:16.622440,67.26038
2021-04-21 15:34:16.638060,48.59674
2021-04-21 15:34:16.653690,31.3454
2021-04-21 15:34:16.669310,16.87976
2021-04-21 15:34:16.684940,5.780823
2021-04-21 15:34:16.700570,-1.886597
2021-04-21 15:34:16.716190,-6.218323
2021-04-21 15:34:16.731820,-7.282104
2021-04-21 15:34:16.747440,-5.482178
2021-04-21 15:34:16.763070,-1.299438
2021-04-21 15:34:16.778690,4.639771
2021-04-21 15:34:16.794320,11.60266
2021-04-21 15:34:16.809950,18.92365
2021-04-21 15:34:16.825570,25.70258
2021-04-21 15:34:16.841200,31.34766
2021-04-21 15:34:16.856820,35.77832
2021-04-21 15:34:16.872450,39.37244
2021-04-21 15:34:16.888070,42.51251
2021-04-21 15:34:16.903700,45.64532
2021-04-21 15:34:16.919330,49.18793
2021-04-21 15:34:16.934950,53.4538
2021-04-21 15:34:16.950580,58.79773
2021-04-21 15:34:16.966200,65.30518
2021-04-21 15:34:16.981830,73.23407
2021-04-21 15:34:16.997450,83.14014
2021-04-21 15:34:17.013080,95.69299
2021-04-21 15:34:17.028710,110.6583
2021-04-21 15:34:17.044330,127.4675
2021-04-21 15:34:17.059960,145.2129
2021-04-21 15:34:17.075580,162.5044
2021-04-21 15:34:17.091210,177.7428
2021-04-21 15:34:17.106830,188.3356
2021-04-21 15:34:17.122460,192.1204
2021-04-21 15:34:17.138090,188.272
2021-04-21 15:34:17.153710,177.449
2021-04-21 15:34:17.169340,159.5089
2021-04-21 15:34:17.184960,135.4585
2021-04-21 15:34:17.200590,107.3529
2021-04-21 15:34:17.216210,77.59753
2021-04-21 15:34:17.231840,48.95282
2021-04-21 15:34:17.247470,21.04315
2021-04-21 15:34:17.263090,-7.346313
2021-04-21 15:34:17.278720,-37.16217
2021-04-21 15:34:17.294340,-69.07324
2021-04-21 15:34:17.309970,-107.3391
2021-04-21 15:34:17.325590,-154.1992
2021-04-21 15:34:17.341220,-208.2258
2021-04-21 15:34:17.356850,-264.627
2021-04-21 15:34:17.372470,-315.3781
2021-04-21 15:34:17.388100,-357.6384
2021-04-21 15:34:17.403720,-390.7091
2021-04-21 15:34:17.419350,-414.7938
2021-04-21 15:34:17.434970,-431.2991
2021-04-21 15:34:17.450600,-448.4017
2021-04-21 15:34:17.466230,-471.8291
2021-04-21 15:34:17.481850,-502.0741
2021-04-21 15:34:17.497480,-534.8885
2021-04-21 15:34:17.513100,-561.3969
2021-04-21 15:34:17.528730,-581.034
2021-04-21 15:34:17.544350,-595.9647
2021-04-21 15:34:17.559980,-608.3732
2021-04-21 15:34:17.575610,-620.3988
2021-04-21 15:34:17.591230,-641.0835
2021-04-21 15:34:17.606860,-674.7241
2021-04-21 15:34:17.622480,-717.9658
2021-04-21 15:34:17.638110,-761.1544
2021-04-21 15:34:17.653730,-789.342
2021-04-21 15:34:17.669360,-799.8688
2021-04-21 15:34:17.684990,-795.5021
2021-04-21 15:34:17.700610,-780.7936
2021-04-21 15:34:17.716240,-706.7436
2021-04-21 15:34:17.731860,-553.449
2021-04-21 15:34:17.747490,-337.5543
2021-04-21 15:34:17.763110,-103.6736
2021-04-21 15:34:17.778740,75.25494
2021-04-21 15:34:17.794370,202.1116
2021-04-21 15:34:17.809990,290.35
2021-04-21 15:34:17.825620,349.809
2021-04-21 15:34:17.841240,392.3229
2021-04-21 15:34:17.856870,420.4413
2021-04-21 15:34:17.872490,427.208
2021-04-21 15:34:17.888120,409.8529
2021-04-21 15:34:17.903750,373.1388
2021-04-21 15:34:17.919370,327.9662
2021-04-21 15:34:17.935000,290.3702
2021-04-21 15:34:17.950620,264.4837
2021-04-21 15:34:17.966250,250.0844
2021-04-21 15:34:17.981870,246.5193
2021-04-21 15:34:17.997500,252.6343
2021-04-21 15:34:18.013130,261.538
2021-04-21 15:34:18.028750,268.257
2021-04-21 15:34:18.044380,271.3629
2021-04-21 15:34:18.060000,272.4469
2021-04-21 15:34:18.075630,276.9148
2021-04-21 15:34:18.091250,282.4397
2021-04-21 15:34:18.106880,285.5787
2021-04-21 15:34:18.122510,284.5796
2021-04-21 15:34:18.138130,278.7075
2021-04-21 15:34:18.153760,264.6966
2021-04-21 15:34:18.169380,241.323
2021-04-21 15:34:18.185010,210.6095
2021-04-21 15:34:18.200630,177.5527
2021-04-21 15:34:18.216260,150.0793
2021-04-21 15:34:18.231890,130.687
2021-04-21 15:34:18.247510,119.419
2021-04-21 15:34:18.263140,114.9422
2021-04-21 15:34:18.278760,114.3968
2021-04-21 15:34:18.294390,112.8581
2021-04-21 15:34:18.310010,106.8093
2021-04-21 15:34:18.325640,95.60632
2021-04-21 15:34:18.341270,81.64249
2021-04-21 15:34:18.356890,69.82381
2021-04-21 15:34:18.372520,62.73445
2021-04-21 15:34:18.388140,61.32211
2021-04-21 15:34:18.403770,65.01059
2021-04-21 15:34:18.419390,71.59784
2021-04-21 15:34:18.435020,77.41562
2021-04-21 15:34:18.450650,79.11633
2021-04-21 15:34:18.466270,74.79312
2021-04-21 15:34:18.481900,64.62155
2021-04-21 15:34:18.497520,51.12442
2021-04-21 15:34:18.513150,37.37265
2021-04-21 15:34:18.528780,26.73267
2021-04-21 15:34:18.544400,22.02042
2021-04-21 15:34:18.560030,24.54364
2021-04-21 15:34:18.575650,33.81924
2021-04-21 15:34:18.591280,47.77884
2021-04-21 15:34:18.606900,63.5697
2021-04-21 15:34:18.622530,78.53214
2021-04-21 15:34:18.638160,90.83292
2021-04-21 15:34:18.653780,99.67322
2021-04-21 15:34:18.669410,104.9584
2021-04-21 15:34:18.685030,106.8961
2021-04-21 15:34:18.700660,105.6314
2021-04-21 15:34:18.716280,101.254
2021-04-21 15:34:18.731910,93.99622
2021-04-21 15:34:18.747540,84.42899
2021-04-21 15:34:18.763160,73.5376
2021-04-21 15:34:18.778790,62.49139
2021-04-21 15:34:18.794410,52.25833
2021-04-21 15:34:18.810040,43.33102
2021-04-21 15:34:18.825660,35.57645
2021-04-21 15:34:18.841290,28.4194
2021-04-21 15:34:18.856920,21.14902
2021-04-21 15:34:18.872540,13.30469
2021-04-21 15:34:18.888170,4.829468
2021-04-21 15:34:18.903790,-3.899475
2021-04-21 15:34:18.919420,-12.29276
2021-04-21 15:34:18.935040,-19.82605
2021-04-21 15:34:18.950670,-26.27466
2021-04-21 15:34:18.966300,-31.76132
2021-04-21 15:34:18.981920,-36.66104
2021-04-21 15:34:18.997550,-41.42511
2021-04-21 15:34:19.013170,-46.43289
2021-04-21 15:34:19.028800,-51.92117
2021-04-21 15:34:19.044420,-57.96234
2021-04-21 15:34:19.060050,-64.44159
2021-04-21 15:34:19.075680,-70.91351
2021-04-21 15:34:19.091300,-76.50842
2021-04-21 15:34:19.106930,-79.92108
2021-04-21 15:34:19.122550,-79.67078
2021-04-21 15:34:19.138180,-74.60846
2021-04-21 15:34:19.153800,-64.49731
2021-04-21 15:34:19.169430,-50.39844
2021-04-21 15:34:19.185060,-34.50757
2021-04-21 15:34:19.200680,-19.63715
2021-04-21 15:34:19.216310,-8.35907
2021-04-21 15:34:19.231930,-2.3396
2021-04-21 15:34:19.247560,-2.093811
2021-04-21 15:34:19.263180,-7.13562
2021-04-21 15:34:19.278810,-16.46118
2021-04-21 15:34:19.294440,-28.92749
2021-04-21 15:34:19.310060,-43.48816
2021-04-21 15:34:19.325690,-59.11572
2021-04-21 15:34:19.341310,-74.67426
2021-04-21 15:34:19.356940,-88.76904
2021-04-21 15:34:19.372560,-99.79932
2021-04-21 15:34:19.388190,-106.2632
2021-04-21 15:34:19.403820,-107.228
2021-04-21 15:34:19.419440,-102.7608
2021-04-21 15:34:19.435070,-94.086
2021-04-21 15:34:19.450690,-83.26947
2021-04-21 15:34:19.466320,-72.42065
2021-04-21 15:34:19.481940,-62.78442
2021-04-21 15:34:19.497570,-54.2066
2021-04-21 15:34:19.513200,-45.33191
2021-04-21 15:34:19.528820,-34.49188
2021-04-21 15:34:19.544450,-20.82135
2021-04-21 15:34:19.560070,-4.886597
2021-04-21 15:34:19.575700,11.49939
2021-04-21 15:34:19.591320,26.20654
2021-04-21 15:34:19.606950,37.84375
2021-04-21 15:34:19.622580,46.25922
2021-04-21 15:34:19.638200,52.26477
2021-04-21 15:34:19.653830,56.81787
2021-04-21 15:34:19.669450,60.36523
2021-04-21 15:34:19.685080,62.72198
2021-04-21 15:34:19.700700,63.57599
2021-04-21 15:34:19.716330,63.06427
2021-04-21 15:34:19.731960,61.93536
2021-04-21 15:34:19.747580,61.1803
2021-04-21 15:34:19.763210,61.32953
2021-04-21 15:34:19.778830,62.03607
2021-04-21 15:34:19.794460,62.27234
2021-04-21 15:34:19.810080,60.98798
2021-04-21 15:34:19.825710,57.82947
2021-04-21 15:34:19.841340,53.53015
2021-04-21 15:34:19.856960,49.69385
2021-04-21 15:34:19.872590,48.1748
2021-04-21 15:34:19.888210,50.37695
2021-04-21 15:34:19.903840,56.80017
2021-04-21 15:34:19.919460,66.84998
2021-04-21 15:34:19.935090,78.85803
2021-04-21 15:34:19.950720,90.27655
2021-04-21 15:34:19.966340,98.20319
2021-04-21 15:34:19.981970,100.1285
2021-04-21 15:34:19.997590,94.7912
2021-04-21 15:34:20.013220,82.71436
2021-04-21 15:34:20.028840,66.19232
2021-04-21 15:34:20.044470,48.65625
2021-04-21 15:34:20.060100,33.72717
2021-04-21 15:34:20.075720,24.27362
2021-04-21 15:34:20.091350,21.76801
2021-04-21 15:34:20.106970,25.60675
2021-04-21 15:34:20.122600,32.80457
2021-04-21 15:34:20.138220,38.13849
2021-04-21 15:34:20.153850,35.39423
2021-04-21 15:34:20.169480,19.49371
2021-04-21 15:34:20.185100,-11.10156
2021-04-21 15:34:20.200730,-52.96503
2021-04-21 15:34:20.216350,-98.39453
2021-04-21 15:34:20.231980,-137.8785
2021-04-21 15:34:20.247600,-163.5955
2021-04-21 15:34:20.263230,-171.889
2021-04-21 15:34:20.278860,-163.8188
2021-04-21 15:34:20.294480,-143.897
2021-04-21 15:34:20.310110,-118.0671
2021-04-21 15:34:20.325730,-92.17566
2021-04-21 15:34:20.341360,-71.17932
2021-04-21 15:34:20.356980,-58.75232
2021-04-21 15:34:20.372610,-56.80835
2021-04-21 15:34:20.388240,-64.76147
2021-04-21 15:34:20.403860,-79.24353
2021-04-21 15:34:20.419490,-94.94299
2021-04-21 15:34:20.435110,-106.5239
2021-04-21 15:34:20.450740,-110.8486
2021-04-21 15:34:20.466360,-107.9703
2021-04-21 15:34:20.481990,-100.5612
2021-04-21 15:34:20.497620,-91.86963
2021-04-21 15:34:20.513240,-83.78931
2021-04-21 15:34:20.528870,-76.20886
2021-04-21 15:34:20.544490,-67.797
2021-04-21 15:34:20.560120,-57.76001
2021-04-21 15:34:20.575740,-47.10278
2021-04-21 15:34:20.591370,-38.46411
2021-04-21 15:34:20.607000,-34.64929
2021-04-21 15:34:20.622620,-36.70447
2021-04-21 15:34:20.638250,-42.86987
2021-04-21 15:34:20.653870,-48.98596
2021-04-21 15:34:20.669500,-50.14197
2021-04-21 15:34:20.685120,-42.57483
2021-04-21 15:34:20.700750,-24.95752
2021-04-21 15:34:20.716380,1.374146
2021-04-21 15:34:20.732000,33.27722
2021-04-21 15:34:20.747630,66.9187
2021-04-21 15:34:20.763250,98.63855
2021-04-21 15:34:20.778880,125.5497
2021-04-21 15:34:20.794510,145.6992
2021-04-21 15:34:20.810130,158.3098
2021-04-21 15:34:20.825760,163.8604
2021-04-21 15:34:20.841380,163.9835
2021-04-21 15:34:20.857010,161.0933
2021-04-21 15:34:20.872630,157.6893
2021-04-21 15:34:20.888260,155.7012
2021-04-21 15:34:20.903890,156.0941
2021-04-21 15:34:20.919510,158.8635
2021-04-21 15:34:20.935140,163.3428
2021-04-21 15:34:20.950760,168.5182
2021-04-21 15:34:20.966390,173.2515
2021-04-21 15:34:20.982010,176.3732
2021-04-21 15:34:20.997640,176.8383
2021-04-21 15:34:21.013270,173.9922
2021-04-21 15:34:21.028890,167.7727
2021-04-21 15:34:21.044520,158.8232
2021-04-21 15:34:21.060140,148.36
2021-04-21 15:34:21.075770,137.84
2021-04-21 15:34:21.091390,128.4761
2021-04-21 15:34:21.107020,120.838
2021-04-21 15:34:21.122650,114.6903
2021-04-21 15:34:21.138270,109.1971
2021-04-21 15:34:21.153900,103.2618
2021-04-21 15:34:21.169520,95.91113
2021-04-21 15:34:21.185150,86.56519
2021-04-21 15:34:21.200770,75.11768
2021-04-21 15:34:21.216400,61.80408
2021-04-21 15:34:21.232030,47.03979
2021-04-21 15:34:21.247650,31.36914
2021-04-21 15:34:21.263280,15.39282
2021-04-21 15:34:21.278900,-0.2437744
2021-04-21 15:34:21.294530,-15.005
2021-04-21 15:34:21.310150,-28.72009
2021-04-21 15:34:21.325780,-41.7522
2021-04-21 15:34:21.341410,-54.98901
2021-04-21 15:34:21.357030,-69.51697
2021-04-21 15:34:21.372660,-86.0719
2021-04-21 15:34:21.388280,-104.4905
2021-04-21 15:34:21.403910,-123.4784
2021-04-21 15:34:21.435160,-153.6064
2021-04-21 15:34:21.450790,-159.347
2021-04-21 15:34:21.466410,-156.0049
2021-04-21 15:34:21.482040,-142.7123
2021-04-21 15:34:21.497660,-120.0197
2021-04-21 15:34:21.513290,-90.0271
2021-04-21 15:34:21.528910,-56.12854
2021-04-21 15:34:21.544540,-22.41858
2021-04-21 15:34:21.560170,7.301514
2021-04-21 15:34:21.575790,30.48047
2021-04-21 15:34:21.591420,46.44189
2021-04-21 15:34:21.607040,56.37463
2021-04-21 15:34:21.622670,62.63379
2021-04-21 15:34:21.638290,67.82349
2021-04-21 15:34:21.653920,73.91357
2021-04-21 15:34:21.669550,81.85803
2021-04-21 15:34:21.685170,91.63245
2021-04-21 15:34:21.700800,102.6207
2021-04-21 15:34:21.716420,113.9076
2021-04-21 15:34:21.732050,124.4139
2021-04-21 15:34:21.747670,132.9642
2021-04-21 15:34:21.763300,138.3687
2021-04-21 15:34:21.778930,139.7302
2021-04-21 15:34:21.794550,136.8051
2021-04-21 15:34:21.810180,130.2762
2021-04-21 15:34:21.825800,121.655
2021-04-21 15:34:21.841430,112.8395
2021-04-21 15:34:21.857050,105.3549
2021-04-21 15:34:21.872680,99.78601
2021-04-21 15:34:21.888310,95.5863
2021-04-21 15:34:21.903930,91.50549
2021-04-21 15:34:21.919560,86.2688
2021-04-21 15:34:21.935180,79.30713
2021-04-21 15:34:21.950810,71.00061
2021-04-21 15:34:21.966430,62.45483
2021-04-21 15:34:21.982060,54.8844
2021-04-21 15:34:21.997690,48.99658
2021-04-21 15:34:22.013310,44.71558
2021-04-21 15:34:22.028940,41.40405
2021-04-21 15:34:22.044560,38.33301
2021-04-21 15:34:22.060190,35.16748
2021-04-21 15:34:22.075810,32.17969
2021-04-21 15:34:22.091440,30.05994
2021-04-21 15:34:22.107070,29.51501
2021-04-21 15:34:22.122690,30.83252
2021-04-21 15:34:22.138320,33.63513
2021-04-21 15:34:22.153940,36.95947
2021-04-21 15:34:22.169570,39.55481
2021-04-21 15:34:22.185190,40.33618
2021-04-21 15:34:22.200820,38.68726
2021-04-21 15:34:22.216450,34.67139
2021-04-21 15:34:22.232070,28.87097
2021-04-21 15:34:22.247700,22.11047
2021-04-21 15:34:22.263320,15.12915
2021-04-21 15:34:22.278950,8.318604
2021-04-21 15:34:22.294570,1.728271
2021-04-21 15:34:22.310200,-4.734253
2021-04-21 15:34:22.325830,-11.03833
2021-04-21 15:34:22.341450,-16.86774
2021-04-21 15:34:22.357080,-21.64874
2021-04-21 15:34:22.372700,-24.81769
2021-04-21 15:34:22.388330,-26.12079
2021-04-21 15:34:22.403950,-25.79688
2021-04-21 15:34:22.419580,-24.53229
2021-04-21 15:34:22.435210,-23.17792
2021-04-21 15:34:22.450830,-22.38263
2021-04-21 15:34:22.466460,-22.42017
2021-04-21 15:34:22.482080,-23.20471
2021-04-21 15:34:22.497710,-24.49451
2021-04-21 15:34:22.513330,-26.16516
2021-04-21 15:34:22.528960,-28.32495
2021-04-21 15:34:22.544590,-31.28906
2021-04-21 15:34:22.560210,-35.39508
2021-04-21 15:34:22.575840,-40.79816
2021-04-21 15:34:22.591460,-47.40631
2021-04-21 15:34:22.607090,-54.9032
2021-04-21 15:34:22.622710,-62.90839
2021-04-21 15:34:22.638340,-71.08759
2021-04-21 15:34:22.653970,-79.27002
2021-04-21 15:34:22.669590,-87.3844
2021-04-21 15:34:22.685220,-95.43866
2021-04-21 15:34:22.700840,-103.422
2021-04-21 15:34:22.716470,-111.2819
2021-04-21 15:34:22.732090,-118.8672
2021-04-21 15:34:22.747720,-125.9111
2021-04-21 15:34:22.763350,-131.9678
2021-04-21 15:34:22.778970,-136.4011
2021-04-21 15:34:22.794600,-138.4084
2021-04-21 15:34:22.810220,-137.1155
2021-04-21 15:34:22.825850,-131.7875
2021-04-21 15:34:22.841470,-122.0327
2021-04-21 15:34:22.857100,-107.9673
2021-04-21 15:34:22.872730,-90.28674
2021-04-21 15:34:22.888350,-70.18591
2021-04-21 15:34:22.903980,-49.18689
2021-04-21 15:34:22.919600,-28.88971
2021-04-21 15:34:22.935230,-10.75098
2021-04-21 15:34:22.950860,4.02478
2021-04-21 15:34:22.966480,14.57477
2021-04-21 15:34:22.982110,20.36011
2021-04-21 15:34:22.997730,21.15979
2021-04-21 15:34:23.013360,17.14502
2021-04-21 15:34:23.028980,8.879822
2021-04-21 15:34:23.044610,-2.668274
2021-04-21 15:34:23.060240,-16.21405
2021-04-21 15:34:23.075860,-30.35529
2021-04-21 15:34:23.091490,-43.79181
2021-04-21 15:34:23.107110,-55.47797
2021-04-21 15:34:23.122740,-64.72797
2021-04-21 15:34:23.138360,-71.17261
2021-04-21 15:34:23.153990,-74.67535
2021-04-21 15:34:23.169620,-75.26257
2021-04-21 15:34:23.185240,-73.0553
2021-04-21 15:34:23.200870,-68.28937
2021-04-21 15:34:23.216490,-61.37524
2021-04-21 15:34:23.232120,-52.93713
2021-04-21 15:34:23.247740,-43.75677
2021-04-21 15:34:23.263370,-34.60107
2021-04-21 15:34:23.279000,-26.06226
2021-04-21 15:34:23.294620,-18.41516
2021-04-21 15:34:23.310250,-11.60901
2021-04-21 15:34:23.325870,-5.39978
2021-04-21 15:34:23.341500,0.3724976
2021-04-21 15:34:23.357120,5.628601
2021-04-21 15:34:23.372750,9.990417
2021-04-21 15:34:23.388380,12.94812
2021-04-21 15:34:23.404000,14.0625
2021-04-21 15:34:23.419630,13.1629
2021-04-21 15:34:23.435250,10.44873
2021-04-21 15:34:23.450880,6.449524
2021-04-21 15:34:23.466500,1.975098
2021-04-21 15:34:23.482130,-2.015076
2021-04-21 15:34:23.497760,-4.55249
2021-04-21 15:34:23.513380,-4.831299
2021-04-21 15:34:23.529010,-2.480591
2021-04-21 15:34:23.544630,2.304504
2021-04-21 15:34:23.560260,8.702759
2021-04-21 15:34:23.575880,15.49542
2021-04-21 15:34:23.591510,21.38068
2021-04-21 15:34:23.607140,25.37274
2021-04-21 15:34:23.622760,27.02112
2021-04-21 15:34:23.638390,26.57269
2021-04-21 15:34:23.654010,24.62946
2021-04-21 15:34:23.669640,21.81915
2021-04-21 15:34:23.685260,18.45221
2021-04-21 15:34:23.700890,14.86719
2021-04-21 15:34:23.716520,11.39838
2021-04-21 15:34:23.732140,8.47467
2021-04-21 15:34:23.747770,6.435669
2021-04-21 15:34:23.763390,5.50415
2021-04-21 15:34:23.779020,5.816833
2021-04-21 15:34:23.794640,7.201355
2021-04-21 15:34:23.810270,9.138489
2021-04-21 15:34:23.825900,10.80261
2021-04-21 15:34:23.841520,11.62219
2021-04-21 15:34:23.857150,11.36584
2021-04-21 15:34:23.872770,10.11804
2021-04-21 15:34:23.888400,8.070801
2021-04-21 15:34:23.904020,5.414795
2021-04-21 15:34:23.919650,2.605896
2021-04-21 15:34:23.935280,-0.01019287
2021-04-21 15:34:23.950900,-2.346008
2021-04-21 15:34:23.966530,-4.924866
2021-04-21 15:34:23.982150,-7.929993
2021-04-21 15:34:23.997780,-11.34875
2021-04-21 15:34:24.013400,-15.07751
2021-04-21 15:34:24.029030,-19.27118
2021-04-21 15:34:24.044660,-24.20129
2021-04-21 15:34:24.060280,-29.08588
2021-04-21 15:34:24.075910,-32.95905
2021-04-21 15:34:24.091530,-34.95996
2021-04-21 15:34:24.107160,-35.64813
2021-04-21 15:34:24.122780,-34.61017
2021-04-21 15:34:24.138410,-31.26398
2021-04-21 15:34:24.154040,-25.26959
2021-04-21 15:34:24.169660,-17.27814
2021-04-21 15:34:24.185290,-8.407898
2021-04-21 15:34:24.200910,2.328796
2021-04-21 15:34:24.216540,15.97821
2021-04-21 15:34:24.232160,32.43683
2021-04-21 15:34:24.247790,47.55005
2021-04-21 15:34:24.263420,58.42566
2021-04-21 15:34:24.279040,63.07715
2021-04-21 15:34:24.294670,61.18427
2021-04-21 15:34:24.310290,53.15662
2021-04-21 15:34:24.325920,40.55048
2021-04-21 15:34:24.341540,28.77264
2021-04-21 15:34:24.357170,22.57001
2021-04-21 15:34:24.372800,23.97797
2021-04-21 15:34:24.388420,28.54926
2021-04-21 15:34:24.404050,34.8183
2021-04-21 15:34:24.419670,43.71838
2021-04-21 15:34:24.435300,58.19458
2021-04-21 15:34:24.450920,79.68115
2021-04-21 15:34:24.466550,107.5285
2021-04-21 15:34:24.482180,143.13
2021-04-21 15:34:24.497800,185.9667
2021-04-21 15:34:24.513430,233.1903
2021-04-21 15:34:24.529050,275.8243
2021-04-21 15:34:24.544680,310.6597
2021-04-21 15:34:24.560300,338.2605
2021-04-21 15:34:24.575930,361.6731
2021-04-21 15:34:24.591560,382.2447
2021-04-21 15:34:24.607180,374.188
2021-04-21 15:34:24.622810,321.0038
2021-04-21 15:34:24.638430,223.1004
2021-04-21 15:34:24.654060,127.9616
2021-04-21 15:34:24.669680,51.17868
2021-04-21 15:34:24.685310,-3.873871
2021-04-21 15:34:24.700940,-47.25238
2021-04-21 15:34:24.716560,-81.70032
2021-04-21 15:34:24.732190,-109.046
2021-04-21 15:34:24.747810,-130.9001
2021-04-21 15:34:24.763440,-144.7465
2021-04-21 15:34:24.794690,-143.3076
2021-04-21 15:34:24.810320,-135.8336
2021-04-21 15:34:24.825940,-129.2219
2021-04-21 15:34:24.841570,-123.4796
2021-04-21 15:34:24.857190,-116.4103
2021-04-21 15:34:24.872820,-107.5057
2021-04-21 15:34:24.888440,-97.59109
2021-04-21 15:34:24.904070,-85.09299
2021-04-21 15:34:24.919700,-69.01221
2021-04-21 15:34:24.935320,-49.78664
2021-04-21 15:34:24.950950,-32.95433
2021-04-21 15:34:24.966570,-20.41733
2021-04-21 15:34:24.982200,-11.88754
2021-04-21 15:34:24.997820,-5.362808
2021-04-21 15:34:25.013450,0.1592407
2021-04-21 15:34:25.029080,5.063095
2021-04-21 15:34:25.044700,11.45467
2021-04-21 15:34:25.060330,20.85297
2021-04-21 15:34:25.075950,33.19116
2021-04-21 15:34:25.091580,44.16063
2021-04-21 15:34:25.107200,50.84187
2021-04-21 15:34:25.122830,51.5191
2021-04-21 15:34:25.138460,46.4486
2021-04-21 15:34:25.154080,36.91079
2021-04-21 15:34:25.169710,25.51739
2021-04-21 15:34:25.185330,16.55854
2021-04-21 15:34:25.200960,13.50854
2021-04-21 15:34:25.216580,17.34
2021-04-21 15:34:25.232210,24.92457
2021-04-21 15:34:25.247840,32.48377
2021-04-21 15:34:25.263460,36.87498
2021-04-21 15:34:25.279090,37.00301
2021-04-21 15:34:25.294710,33.635
2021-04-21 15:34:25.310340,28.89729
2021-04-21 15:34:25.325960,25.35413
2021-04-21 15:34:25.341590,24.36803
2021-04-21 15:34:25.357220,25.55782
2021-04-21 15:34:25.372840,26.96935
2021-04-21 15:34:25.388470,27.13496
2021-04-21 15:34:25.404090,25.94611
2021-04-21 15:34:25.419720,24.72487
2021-04-21 15:34:25.435340,25.19904
2021-04-21 15:34:25.450970,28.37169
2021-04-21 15:34:25.466600,33.69577
2021-04-21 15:34:25.482220,38.90344
2021-04-21 15:34:25.497850,40.69687
2021-04-21 15:34:25.513470,35.92224
2021-04-21 15:34:25.529100,22.53674
2021-04-21 15:34:25.544720,0.1269226
2021-04-21 15:34:25.560350,-30.21387
2021-04-21 15:34:25.575980,-66.39789
2021-04-21 15:34:25.591600,-105.8586
2021-04-21 15:34:25.607230,-145.812
2021-04-21 15:34:25.622850,-183.3202
2021-04-21 15:34:25.638480,-215.3593
2021-04-21 15:34:25.654110,-238.8831
2021-04-21 15:34:25.669730,-251.2606
2021-04-21 15:34:25.685360,-250.7561
2021-04-21 15:34:25.700980,-237.2043
2021-04-21 15:34:25.716610,-212.4476
2021-04-21 15:34:25.732230,-180.5522
2021-04-21 15:34:25.747860,-147.3538
2021-04-21 15:34:25.763490,-119.1415
2021-04-21 15:34:25.779110,-100.6484
2021-04-21 15:34:25.794740,-92.98438
2021-04-21 15:34:25.810360,-92.61105
2021-04-21 15:34:25.825990,-92.31232
2021-04-21 15:34:25.841610,-84.02014
2021-04-21 15:34:25.857240,-62.39484
2021-04-21 15:34:25.872870,-27.34088
2021-04-21 15:34:25.888490,15.81512
2021-04-21 15:34:25.919740,93.3985
2021-04-21 15:34:25.935370,115.5587
2021-04-21 15:34:25.950990,125.1234
2021-04-21 15:34:25.966620,125.1628
2021-04-21 15:34:25.982250,119.5275
2021-04-21 15:34:25.997870,110.9421
2021-04-21 15:34:26.013500,100.4442
2021-04-21 15:34:26.029120,88.05243
2021-04-21 15:34:26.044750,73.93634
2021-04-21 15:34:26.060370,58.99945
2021-04-21 15:34:26.076000,44.80243
2021-04-21 15:34:26.091630,32.64215
2021-04-21 15:34:26.107250,22.60187
2021-04-21 15:34:26.122880,13.14227
2021-04-21 15:34:26.138500,1.542603
2021-04-21 15:34:26.154130,-14.9469
2021-04-21 15:34:26.169750,-37.88092
2021-04-21 15:34:26.185380,-67.06915
2021-04-21 15:34:26.201010,-100.9791
2021-04-21 15:34:26.216630,-137.4966
2021-04-21 15:34:26.232260,-174.8271
2021-04-21 15:34:26.247880,-211.8876
2021-04-21 15:34:26.263510,-247.9424
2021-04-21 15:34:26.279130,-281.6631
2021-04-21 15:34:26.294760,-310.2869
2021-04-21 15:34:26.310390,-329.4986
2021-04-21 15:34:26.326010,-334.4807
2021-04-21 15:34:26.341640,-321.9191
2021-04-21 15:34:26.357260,-291.2787
2021-04-21 15:34:26.372890,-245.3051
2021-04-21 15:34:26.388510,-189.433
2021-04-21 15:34:26.404140,-130.288
2021-04-21 15:34:26.419770,-73.88562
2021-04-21 15:34:26.435390,-24.2605
2021-04-21 15:34:26.451020,16.97552
2021-04-21 15:34:26.466640,50.08466
2021-04-21 15:34:26.482270,75.22913
2021-04-21 15:34:26.497890,92.67365
2021-04-21 15:34:26.513520,102.8757
2021-04-21 15:34:26.529150,106.741
2021-04-21 15:34:26.544770,105.6233
2021-04-21 15:34:26.560400,101.1732
2021-04-21 15:34:26.576020,95.1015
2021-04-21 15:34:26.591650,88.88751
2021-04-21 15:34:26.607270,83.4491
2021-04-21 15:34:26.622900,77.2547
2021-04-21 15:34:26.638530,68.58234
2021-04-21 15:34:26.654150,56.854
2021-04-21 15:34:26.669780,42.90723
2021-04-21 15:34:26.685400,28.11731
2021-04-21 15:34:26.701030,13.38605
2021-04-21 15:34:26.716650,-1.054443
2021-04-21 15:34:26.732280,-15.31158
2021-04-21 15:34:26.747910,-29.40137
2021-04-21 15:34:26.763530,-45.776
2021-04-21 15:34:26.779160,-65.8869
2021-04-21 15:34:26.794780,-88.69781
2021-04-21 15:34:26.810410,-110.8655
2021-04-21 15:34:26.826030,-128.658
2021-04-21 15:34:26.841660,-139.785
2021-04-21 15:34:26.857290,-143.9765
2021-04-21 15:34:26.872910,-142.7054
2021-04-21 15:34:26.888540,-138.5705
2021-04-21 15:34:26.904160,-138.0668
2021-04-21 15:34:26.919790,-146.4839
2021-04-21 15:34:26.935410,-164.9958
2021-04-21 15:34:26.951040,-190.4597
2021-04-21 15:34:26.966670,-217.9666
2021-04-21 15:34:26.982290,-243.6705
2021-04-21 15:34:26.997920,-265.9539
2021-04-21 15:34:27.013540,-285.1823
2021-04-21 15:34:27.029170,-279.2797
2021-04-21 15:34:27.044790,-236.9283
2021-04-21 15:34:27.060420,-162.5291
2021-04-21 15:34:27.076050,-73.6366
2021-04-21 15:34:27.091670,11.8035
2021-04-21 15:34:27.107300,84.25394
2021-04-21 15:34:27.122920,141.7335
2021-04-21 15:34:27.138550,185.2843
2021-04-21 15:34:27.154170,216.2061
2021-04-21 15:34:27.169800,233.3214
2021-04-21 15:34:27.185430,236.1909
2021-04-21 15:34:27.201050,225.4315
2021-04-21 15:34:27.216680,204.6776
2021-04-21 15:34:27.232300,180.2754
2021-04-21 15:34:27.247930,158.3902
2021-04-21 15:34:27.263550,142.5606
2021-04-21 15:34:27.279180,133.259
2021-04-21 15:34:27.294810,128.708
2021-04-21 15:34:27.310430,127.6253
2021-04-21 15:34:27.326060,124.3529
2021-04-21 15:34:27.341680,112.7954
2021-04-21 15:34:27.357310,89.5174
2021-04-21 15:34:27.372930,55.29956
2021-04-21 15:34:27.388560,14.71603
2021-04-21 15:34:27.404190,-25.453
2021-04-21 15:34:27.419810,-58.24019
2021-04-21 15:34:27.435440,-78.75082
2021-04-21 15:34:27.451060,-85.94546
2021-04-21 15:34:27.466690,-84.70921
2021-04-21 15:34:27.482310,-82.08703
2021-04-21 15:34:27.497940,-83.22576
2021-04-21 15:34:27.513570,-89.16833
2021-04-21 15:34:27.529190,-97.37527
2021-04-21 15:34:27.544820,-103.9236
2021-04-21 15:34:27.560440,-105.5837
2021-04-21 15:34:27.576070,-100.8044
2021-04-21 15:34:27.591690,-89.40958
2021-04-21 15:34:27.607320,-72.60564
2021-04-21 15:34:27.622950,-51.05033
2021-04-21 15:34:27.638570,-24.14117
2021-04-21 15:34:27.654200,9.132792
2021-04-21 15:34:27.669820,48.52317
2021-04-21 15:34:27.685450,91.49349
2021-04-21 15:34:27.701070,133.499
2021-04-21 15:34:27.716700,169.343
2021-04-21 15:34:27.732330,194.9808
2021-04-21 15:34:27.747950,208.4814
2021-04-21 15:34:27.763580,210.8905
2021-04-21 15:34:27.779200,205.8848
2021-04-21 15:34:27.794830,198.322
2021-04-21 15:34:27.810450,192.3986
2021-04-21 15:34:27.826080,190.2238
2021-04-21 15:34:27.841710,191.4933
2021-04-21 15:34:27.857330,194.2214
2021-04-21 15:34:27.872960,195.9912
2021-04-21 15:34:27.888580,194.8623
2021-04-21 15:34:27.904210,189.8317
2021-04-21 15:34:27.919840,180.6878
2021-04-21 15:34:27.935460,167.7495
2021-04-21 15:34:27.951090,151.8456
2021-04-21 15:34:27.966710,134.6105
2021-04-21 15:34:27.982340,118.5301
2021-04-21 15:34:27.997960,106.4141
2021-04-21 15:34:28.013590,100.144
2021-04-21 15:34:28.029220,99.50833
2021-04-21 15:34:28.044840,101.9607
2021-04-21 15:34:28.060470,103.7132
2021-04-21 15:34:28.076090,101.7485
2021-04-21 15:34:28.091720,95.48591
2021-04-21 15:34:28.107340,86.98948
2021-04-21 15:34:28.122970,79.5694
2021-04-21 15:34:28.138600,75.64287
2021-04-21 15:34:28.154220,75.25079
2021-04-21 15:34:28.169850,76.23029
2021-04-21 15:34:28.185470,75.7924
2021-04-21 15:34:28.201100,72.40394
2021-04-21 15:34:28.216720,66.61134
2021-04-21 15:34:28.232350,60.44319
2021-04-21 15:34:28.247980,55.75745
2021-04-21 15:34:28.263600,52.68642
2021-04-21 15:34:28.279230,49.30608
2021-04-21 15:34:28.294850,42.65545
2021-04-21 15:34:28.310480,30.51648
2021-04-21 15:34:28.326100,12.73576
2021-04-21 15:34:28.341730,-8.585022
2021-04-21 15:34:28.357360,-30.01978
2021-04-21 15:34:28.372980,-48.35601
2021-04-21 15:34:28.388610,-61.91138
2021-04-21 15:34:28.404230,-70.9055
2021-04-21 15:34:28.419860,-77.11379
2021-04-21 15:34:28.435480,-83.08714
2021-04-21 15:34:28.451110,-91.29359
2021-04-21 15:34:28.466740,-103.3082
2021-04-21 15:34:28.482360,-119.0836
2021-04-21 15:34:28.497990,-136.4612
2021-04-21 15:34:28.513610,-151.4214
2021-04-21 15:34:28.529240,-159.1651
2021-04-21 15:34:28.544860,-155.9169
2021-04-21 15:34:28.560490,-140.5929
2021-04-21 15:34:28.576120,-115.4343
2021-04-21 15:34:28.591740,-85.13902
2021-04-21 15:34:28.607370,-54.90974
2021-04-21 15:34:28.622990,-28.43744
2021-04-21 15:34:28.638620,-6.92897
2021-04-21 15:34:28.654240,10.56657
2021-04-21 15:34:28.669870,25.90028
2021-04-21 15:34:28.685500,40.68805
2021-04-21 15:34:28.701120,55.78978
2021-04-21 15:34:28.716750,71.49512
2021-04-21 15:34:28.732370,87.92105
2021-04-21 15:34:28.748000,105.0319
2021-04-21 15:34:28.763620,122.2234
2021-04-21 15:34:28.779250,137.918
2021-04-21 15:34:28.794880,149.7428
2021-04-21 15:34:28.810500,155.1675
2021-04-21 15:34:28.826130,152.6478
2021-04-21 15:34:28.841750,142.3443
2021-04-21 15:34:28.857380,126.5124
2021-04-21 15:34:28.873000,108.9684
2021-04-21 15:34:28.888630,93.83676
2021-04-21 15:34:28.904260,84.09222
2021-04-21 15:34:28.919880,80.27231
2021-04-21 15:34:28.935510,80.14133
2021-04-21 15:34:28.951130,79.46887
2021-04-21 15:34:28.966760,73.68127
2021-04-21 15:34:28.982380,59.59976
2021-04-21 15:34:28.998010,36.67609
2021-04-21 15:34:29.013640,6.97876
2021-04-21 15:34:29.029260,-25.69821
2021-04-21 15:34:29.044890,-57.26028
2021-04-21 15:34:29.060510,-84.48557
2021-04-21 15:34:29.076140,-105.7564
2021-04-21 15:34:29.091760,-121.1046
2021-04-21 15:34:29.107390,-131.888
2021-04-21 15:34:29.123020,-140.2697
2021-04-21 15:34:29.138640,-148.6418
2021-04-21 15:34:29.154270,-159.0361
2021-04-21 15:34:29.169890,-172.7407
2021-04-21 15:34:29.185520,-190.0126
2021-04-21 15:34:29.201140,-210.1208
2021-04-21 15:34:29.216770,-231.4241
2021-04-21 15:34:29.232400,-251.4521
2021-04-21 15:34:29.248020,-267.1227
2021-04-21 15:34:29.263650,-275.1605
2021-04-21 15:34:29.279270,-272.8717
2021-04-21 15:34:29.294900,-259.0361
2021-04-21 15:34:29.310520,-234.5575
2021-04-21 15:34:29.326150,-202.4048
2021-04-21 15:34:29.341780,-166.8968
2021-04-21 15:34:29.357400,-132.5155
2021-04-21 15:34:29.373030,-102.8864
2021-04-21 15:34:29.388650,-80.22479
2021-04-21 15:34:29.404280,-65.12634
2021-04-21 15:34:29.419900,-56.58435
2021-04-21 15:34:29.435530,-52.15088
2021-04-21 15:34:29.451160,-48.42731
2021-04-21 15:34:29.466780,-41.98926
2021-04-21 15:34:29.482410,-30.70514
2021-04-21 15:34:29.498030,-14.59448
2021-04-21 15:34:29.513660,4.18634
2021-04-21 15:34:29.529280,22.45007
2021-04-21 15:34:29.544910,37.56665
2021-04-21 15:34:29.560540,48.60699
2021-04-21 15:34:29.576160,56.39526
2021-04-21 15:34:29.591790,62.52209
2021-04-21 15:34:29.607410,68.11664
2021-04-21 15:34:29.623040,73.25116
2021-04-21 15:34:29.638660,77.27747
2021-04-21 15:34:29.654290,79.73499
2021-04-21 15:34:29.669920,80.99066
2021-04-21 15:34:29.685540,82.09875
2021-04-21 15:34:29.701170,83.99597
2021-04-21 15:34:29.716790,86.67163
2021-04-21 15:34:29.732420,88.98767
2021-04-21 15:34:29.748040,89.38806
2021-04-21 15:34:29.763670,86.84863
2021-04-21 15:34:29.779300,81.60547
2021-04-21 15:34:29.794920,75.05103
2021-04-21 15:34:29.810550,68.92059
2021-04-21 15:34:29.826170,64.30011
2021-04-21 15:34:29.841800,60.9895
2021-04-21 15:34:29.857420,57.47156
2021-04-21 15:34:29.873050,51.46021
2021-04-21 15:34:29.888680,40.76569
2021-04-21 15:34:29.904300,24.12164
2021-04-21 15:34:29.919930,1.775146
2021-04-21 15:34:29.935550,-24.50006
2021-04-21 15:34:29.951180,-51.7713
2021-04-21 15:34:29.966800,-76.6073
2021-04-21 15:34:29.982430,-95.95367
2021-04-21 15:34:29.998060,-107.7834
2021-04-21 15:34:30.013680,-111.4545
2021-04-21 15:34:30.029310,-107.7678
2021-04-21 15:34:30.044930,-98.85345
2021-04-21 15:34:30.060560,-87.7359
2021-04-21 15:34:30.076180,-77.60715
2021-04-21 15:34:30.091810,-71.00241
2021-04-21 15:34:30.107440,-69.04584
2021-04-21 15:34:30.123060,-71.20367
2021-04-21 15:34:30.138690,-75.66586
2021-04-21 15:34:30.154310,-80.13834
2021-04-21 15:34:30.169940,-82.78387
2021-04-21 15:34:30.185560,-82.76038
2021-04-21 15:34:30.201190,-80.16019
2021-04-21 15:34:30.216820,-75.51764
2021-04-21 15:34:30.232440,-69.31042
2021-04-21 15:34:30.248070,-61.7713
2021-04-21 15:34:30.263690,-53.13593
2021-04-21 15:34:30.279320,-43.99609
2021-04-21 15:34:30.294950,-35.3952
2021-04-21 15:34:30.310570,-28.57434
2021-04-21 15:34:30.326200,-24.43066
2021-04-21 15:34:30.341820,-23.14035
2021-04-21 15:34:30.357450,-24.09683
2021-04-21 15:34:30.373070,-26.24454
2021-04-21 15:34:30.388700,-28.47061
2021-04-21 15:34:30.404330,-29.89713
2021-04-21 15:34:30.419950,-29.96399
2021-04-21 15:34:30.435580,-28.52905
2021-04-21 15:34:30.451200,-25.84332
2021-04-21 15:34:30.466830,-22.42014
2021-04-21 15:34:30.482450,-18.92935
2021-04-21 15:34:30.498080,-15.91599
2021-04-21 15:34:30.513710,-13.58917
2021-04-21 15:34:30.529330,-11.737
2021-04-21 15:34:30.544960,-9.810699
2021-04-21 15:34:30.560580,-7.295471
2021-04-21 15:34:30.576210,-4.025146
2021-04-21 15:34:30.591830,-0.3575439
2021-04-21 15:34:30.607460,2.886078
2021-04-21 15:34:30.623090,4.788177
2021-04-21 15:34:30.638710,4.795685
2021-04-21 15:34:30.654340,3.047577
2021-04-21 15:34:30.669960,0.4171753
2021-04-21 15:34:30.685590,-1.809296
2021-04-21 15:34:30.701210,-2.408173
2021-04-21 15:34:30.716840,-0.7062073
2021-04-21 15:34:30.732470,3.223053
2021-04-21 15:34:30.748090,8.646454
2021-04-21 15:34:30.763720,14.55217
2021-04-21 15:34:30.779340,20.0137
2021-04-21 15:34:30.794970,24.5365
2021-04-21 15:34:30.810590,28.0717
2021-04-21 15:34:30.826220,30.90939
2021-04-21 15:34:30.841850,33.38492
2021-04-21 15:34:30.857470,35.71124
2021-04-21 15:34:30.873100,37.88078
2021-04-21 15:34:30.888720,39.74289
2021-04-21 15:34:30.904350,41.18175
2021-04-21 15:34:30.919970,42.22369
2021-04-21 15:34:30.935600,43.02643
2021-04-21 15:34:30.951230,43.83594
2021-04-21 15:34:30.966850,44.82037
2021-04-21 15:34:30.982480,45.94354
2021-04-21 15:34:30.998100,46.94266
2021-04-21 15:34:31.013730,47.4261
2021-04-21 15:34:31.029350,47.02106
2021-04-21 15:34:31.044980,45.57302
2021-04-21 15:34:31.060610,43.18143
2021-04-21 15:34:31.076230,40.13557
2021-04-21 15:34:31.091860,36.79258
2021-04-21 15:34:31.107480,33.39617
2021-04-21 15:34:31.123110,29.9685
2021-04-21 15:34:31.138730,26.40144
2021-04-21 15:34:31.154360,22.53232
2021-04-21 15:34:31.169990,18.26946
2021-04-21 15:34:31.185610,13.60191
2021-04-21 15:34:31.201240,8.517227
2021-04-21 15:34:31.216860,2.955856
2021-04-21 15:34:31.232490,-3.178394
2021-04-21 15:34:31.248110,-9.848503
2021-04-21 15:34:31.263740,-16.66111
2021-04-21 15:34:31.279370,-22.78393
2021-04-21 15:34:31.294990,-27.02443
2021-04-21 15:34:31.310620,-28.27589
2021-04-21 15:34:31.326240,-25.98733
2021-04-21 15:34:31.341870,-20.51671
2021-04-21 15:34:31.357490,-13.09604
2021-04-21 15:34:31.373120,-5.432682
2021-04-21 15:34:31.404370,5.273084
2021-04-21 15:34:31.420000,7.646612
2021-04-21 15:34:31.435620,8.893833
2021-04-21 15:34:31.451250,10.04461
2021-04-21 15:34:31.466870,11.73282
2021-04-21 15:34:31.482500,13.88186
2021-04-21 15:34:31.498130,15.72762
2021-04-21 15:34:31.513750,16.25764
2021-04-21 15:34:31.529380,14.80591
2021-04-21 15:34:31.545000,11.55187
2021-04-21 15:34:31.560630,7.585781
2021-04-21 15:34:31.576250,4.501122
2021-04-21 15:34:31.591880,3.621529
2021-04-21 15:34:31.607510,5.313942
2021-04-21 15:34:31.623130,8.790382
2021-04-21 15:34:31.638760,12.56927
2021-04-21 15:34:31.654380,15.29308
2021-04-21 15:34:31.670010,16.49503
2021-04-21 15:34:31.685630,16.51572
2021-04-21 15:34:31.701260,15.82549
2021-04-21 15:34:31.716890,14.44196
2021-04-21 15:34:31.732510,12.05782
2021-04-21 15:34:31.748140,8.935745
2021-04-21 15:34:31.763760,6.931831
2021-04-21 15:34:31.779390,9.220718
2021-04-21 15:34:31.795010,18.75367
2021-04-21 15:34:31.810640,36.07822
2021-04-21 15:34:31.826270,58.24041
2021-04-21 15:34:31.841890,79.88635
2021-04-21 15:34:31.857520,96.19756
2021-04-21 15:34:31.873140,105.7484
2021-04-21 15:34:31.888770,111.4296
2021-04-21 15:34:31.904390,118.4867
2021-04-21 15:34:31.920020,130.939
2021-04-21 15:34:31.935650,148.7137
2021-04-21 15:34:31.951270,167.479
2021-04-21 15:34:31.966900,181.1123
2021-04-21 15:34:31.982520,185.1457
2021-04-21 15:34:31.998150,178.9268
2021-04-21 15:34:32.013770,165.1402
2021-04-21 15:34:32.029400,147.3033
2021-04-21 15:34:32.045030,127.526
2021-04-21 15:34:32.060650,105.6391
2021-04-21 15:34:32.076280,80.26114
2021-04-21 15:34:32.091900,50.72283
2021-04-21 15:34:32.107530,18.2747
2021-04-21 15:34:32.123150,-14.15672
2021-04-21 15:34:32.138780,-43.14799
2021-04-21 15:34:32.154410,-66.07858
2021-04-21 15:34:32.170030,-81.89935
2021-04-21 15:34:32.185660,-91.37124
2021-04-21 15:34:32.201280,-96.99508
2021-04-21 15:34:32.216910,-102.2201
2021-04-21 15:34:32.232530,-110.1938
2021-04-21 15:34:32.248160,-122.2748
2021-04-21 15:34:32.263790,-136.809
2021-04-21 15:34:32.279410,-149.222
2021-04-21 15:34:32.295040,-153.5695
2021-04-21 15:34:32.310660,-145.043
2021-04-21 15:34:32.326290,-122.1678
2021-04-21 15:34:32.341910,-87.61668
2021-04-21 15:34:32.357540,-47.05854
2021-04-21 15:34:32.373170,-6.858829
2021-04-21 15:34:32.388790,28.03766
2021-04-21 15:34:32.404420,55.12757
2021-04-21 15:34:32.420040,73.91876
2021-04-21 15:34:32.435670,84.84808
2021-04-21 15:34:32.451290,88.4895
2021-04-21 15:34:32.466920,85.54319
2021-04-21 15:34:32.482550,77.18308
2021-04-21 15:34:32.498170,65.33452
2021-04-21 15:34:32.513800,52.36068
2021-04-21 15:34:32.529420,40.27406
2021-04-21 15:34:32.545050,30.41504
2021-04-21 15:34:32.560670,23.18129
2021-04-21 15:34:32.576300,18.17639
2021-04-21 15:34:32.591930,14.54934
2021-04-21 15:34:32.607550,11.34723
2021-04-21 15:34:32.623180,7.761398
2021-04-21 15:34:32.638800,3.133762
2021-04-21 15:34:32.654430,-3.092506
2021-04-21 15:34:32.670050,-11.56919
2021-04-21 15:34:32.685680,-23.03731
2021-04-21 15:34:32.701310,-38.19008
2021-04-21 15:34:32.716930,-57.26815
2021-04-21 15:34:32.732560,-79.50224
2021-04-21 15:34:32.748180,-102.7944
2021-04-21 15:34:32.763810,-123.8847
2021-04-21 15:34:32.779440,-139.1155
2021-04-21 15:34:32.795060,-145.6666
2021-04-21 15:34:32.810690,-142.7239
2021-04-21 15:34:32.826310,-132.0908
2021-04-21 15:34:32.841940,-117.9345
2021-04-21 15:34:32.857560,-105.5325
2021-04-21 15:34:32.873190,-99.54054
2021-04-21 15:34:32.888820,-102.5042
2021-04-21 15:34:32.904440,-114.2131
2021-04-21 15:34:32.920070,-132.1212
2021-04-21 15:34:32.935690,-152.6084
2021-04-21 15:34:32.951320,-172.3184
2021-04-21 15:34:32.966940,-189.0021
2021-04-21 15:34:32.982570,-201.7261
2021-04-21 15:34:32.998200,-210.5263
2021-04-21 15:34:33.013820,-215.9288
2021-04-21 15:34:33.029450,-218.7453
2021-04-21 15:34:33.045070,-219.8318
2021-04-21 15:34:33.060700,-219.8291
2021-04-21 15:34:33.076320,-218.6922
2021-04-21 15:34:33.091950,-214.9996
2021-04-21 15:34:33.107580,-205.563
2021-04-21 15:34:33.123200,-185.8389
2021-04-21 15:34:33.138830,-151.4553
2021-04-21 15:34:33.154450,-100.128
2021-04-21 15:34:33.170080,-33.34018
2021-04-21 15:34:33.185700,43.39159
2021-04-21 15:34:33.201330,121.7314
2021-04-21 15:34:33.216960,192.8168
2021-04-21 15:34:33.232580,249.2946
2021-04-21 15:34:33.248210,286.3293
2021-04-21 15:34:33.263830,301.4519
2021-04-21 15:34:33.279460,293.9193
2021-04-21 15:34:33.295080,264.5261
2021-04-21 15:34:33.310710,216.2203
2021-04-21 15:34:33.326340,154.9383
2021-04-21 15:34:33.341960,89.48282
2021-04-21 15:34:33.357590,29.76984
2021-04-21 15:34:33.373210,-16.15317
2021-04-21 15:34:33.388840,-44.73441
2021-04-21 15:34:33.404460,-57.51517
2021-04-21 15:34:33.420090,-59.35236
2021-04-21 15:34:33.435720,-55.31512
2021-04-21 15:34:33.451340,-48.27969
2021-04-21 15:34:33.466970,-38.65289
2021-04-21 15:34:33.482590,-26.06671
2021-04-21 15:34:33.498220,-11.43018
2021-04-21 15:34:33.513840,2.440491
2021-04-21 15:34:33.529470,12.11761
2021-04-21 15:34:33.545100,16.02911
2021-04-21 15:34:33.560720,16.0777
2021-04-21 15:34:33.576350,17.29416
2021-04-21 15:34:33.591970,25.47751
2021-04-21 15:34:33.607600,44.28931
2021-04-21 15:34:33.638850,109.0782
2021-04-21 15:34:33.654480,145.5337
2021-04-21 15:34:33.670100,177.8769
2021-04-21 15:34:33.685730,203.413
2021-04-21 15:34:33.701350,221.9276
2021-04-21 15:34:33.716980,234.9351
2021-04-21 15:34:33.732600,244.4315
2021-04-21 15:34:33.748230,251.8685
2021-04-21 15:34:33.763860,257.7604
2021-04-21 15:34:33.779480,261.8257
2021-04-21 15:34:33.795110,263.5967
2021-04-21 15:34:33.810730,263.0581
2021-04-21 15:34:33.826360,261.0018
2021-04-21 15:34:33.841980,258.9697
2021-04-21 15:34:33.857610,258.7055
2021-04-21 15:34:33.873240,261.5006
2021-04-21 15:34:33.888860,267.7861
2021-04-21 15:34:33.904490,277.2297
2021-04-21 15:34:33.920110,289.0482
2021-04-21 15:34:33.935740,302.2636
2021-04-21 15:34:33.951360,315.6522
2021-04-21 15:34:33.966990,327.4397
2021-04-21 15:34:33.982620,335.2096
2021-04-21 15:34:33.998240,336.332
2021-04-21 15:34:34.013870,328.939
2021-04-21 15:34:34.029490,312.9777
2021-04-21 15:34:34.045120,290.6599
2021-04-21 15:34:34.060740,265.8926
2021-04-21 15:34:34.076370,242.849
2021-04-21 15:34:34.092000,224.3773
2021-04-21 15:34:34.107620,210.9561
2021-04-21 15:34:34.123250,200.8126
2021-04-21 15:34:34.138870,190.9118
2021-04-21 15:34:34.154500,178.3349
2021-04-21 15:34:34.170120,161.3656
2021-04-21 15:34:34.185750,139.8358
2021-04-21 15:34:34.201380,114.7779
2021-04-21 15:34:34.217000,87.70371
2021-04-21 15:34:34.232630,59.86582
2021-04-21 15:34:34.248250,31.96465
2021-04-21 15:34:34.263880,4.218582
2021-04-21 15:34:34.279500,-23.38791
2021-04-21 15:34:34.295130,-50.91796
2021-04-21 15:34:34.310760,-78.45168
2021-04-21 15:34:34.326380,-106.3327
2021-04-21 15:34:34.342010,-135.0982
2021-04-21 15:34:34.357630,-165.2416
2021-04-21 15:34:34.373260,-196.7123
2021-04-21 15:34:34.388880,-228.3579
2021-04-21 15:34:34.404510,-257.7617
2021-04-21 15:34:34.420140,-281.8586
2021-04-21 15:34:34.435760,-298.0609
2021-04-21 15:34:34.451390,-305.3622
2021-04-21 15:34:34.467010,-304.8416
2021-04-21 15:34:34.482640,-299.1064
2021-04-21 15:34:34.498260,-291.0836
2021-04-21 15:34:34.513890,-282.9461
2021-04-21 15:34:34.529520,-275.3427
2021-04-21 15:34:34.545140,-267.5555
2021-04-21 15:34:34.560770,-258.3905
2021-04-21 15:34:34.576390,-247.2637
2021-04-21 15:34:34.592020,-234.5341
2021-04-21 15:34:34.607640,-221.4696
2021-04-21 15:34:34.623270,-209.3769
2021-04-21 15:34:34.638900,-199.0446
2021-04-21 15:34:34.654520,-191.239
2021-04-21 15:34:34.670150,-186.3854
2021-04-21 15:34:34.685770,-184.6255
2021-04-21 15:34:34.701400,-185.9105
2021-04-21 15:34:34.717020,-190.0701
2021-04-21 15:34:34.732650,-196.4392
2021-04-21 15:34:34.748280,-204.3183
2021-04-21 15:34:34.763900,-212.5974
2021-04-21 15:34:34.779530,-220.0983
2021-04-21 15:34:34.795150,-227.3356
2021-04-21 15:34:34.810780,-235.5236
2021-04-21 15:34:34.826400,-245.8807
2021-04-21 15:34:34.842030,-259.138
2021-04-21 15:34:34.857660,-275.6202
2021-04-21 15:34:34.873280,-294.9031
2021-04-21 15:34:34.888910,-316.8429
2021-04-21 15:34:34.904530,-340.1089
2021-04-21 15:34:34.920160,-361.7086
2021-04-21 15:34:34.935790,-379.1056
2021-04-21 15:34:34.951410,-388.8241
2021-04-21 15:34:34.967040,-386.84
2021-04-21 15:34:34.982660,-369.7438
2021-04-21 15:34:34.998290,-336.4758
2021-04-21 15:34:35.013910,-288.2375
2021-04-21 15:34:35.029540,-229.7142
2021-04-21 15:34:35.045170,-166.0362
2021-04-21 15:34:35.060790,-101.6136
2021-04-21 15:34:35.076420,-42.68152
2021-04-21 15:34:35.092040,5.037048
2021-04-21 15:34:35.107670,37.3577
2021-04-21 15:34:35.123290,52.45212
2021-04-21 15:34:35.138920,50.68698
2021-04-21 15:34:35.154550,35.50168
2021-04-21 15:34:35.170170,10.67673
2021-04-21 15:34:35.185800,-18.26901
2021-04-21 15:34:35.201420,-29.96698
2021-04-21 15:34:35.217050,-10.57458
2021-04-21 15:34:35.232670,40.28833
2021-04-21 15:34:35.248300,109.2825
2021-04-21 15:34:35.263930,178.8355
2021-04-21 15:34:35.279550,229.9643
2021-04-21 15:34:35.295180,262.5018
2021-04-21 15:34:35.310800,278.435
2021-04-21 15:34:35.326430,280.5753
2021-04-21 15:34:35.342050,272.8228
2021-04-21 15:34:35.357680,257.7892
2021-04-21 15:34:35.373310,238.4706
2021-04-21 15:34:35.388930,218.9202
2021-04-21 15:34:35.404560,203.2596
2021-04-21 15:34:35.420180,193.659
2021-04-21 15:34:35.435810,190.189
2021-04-21 15:34:35.451430,188.8066
2021-04-21 15:34:35.467060,185.1117
2021-04-21 15:34:35.482690,176.4177
2021-04-21 15:34:35.498310,161.1124
2021-04-21 15:34:35.513940,141.304
2021-04-21 15:34:35.529560,123.1375
2021-04-21 15:34:35.545190,115.0549
2021-04-21 15:34:35.560810,123.9426
2021-04-21 15:34:35.576440,152.2365
2021-04-21 15:34:35.592070,194.5209
2021-04-21 15:34:35.607690,240.5128
2021-04-21 15:34:35.623320,278.7098
2021-04-21 15:34:35.638940,298.8923
2021-04-21 15:34:35.654570,295.8422
2021-04-21 15:34:35.670190,270.0025
2021-04-21 15:34:35.685820,225.8506
2021-04-21 15:34:35.701450,169.1232
2021-04-21 15:34:35.717070,105.7512
2021-04-21 15:34:35.732700,40.61157
2021-04-21 15:34:35.748320,-20.70309
2021-04-21 15:34:35.763950,-71.82889
2021-04-21 15:34:35.779570,-107.7656
2021-04-21 15:34:35.795200,-126.354
2021-04-21 15:34:35.810830,-129.3564
2021-04-21 15:34:35.826450,-121.8493
2021-04-21 15:34:35.842080,-110.4076
2021-04-21 15:34:35.857700,-100.5941
2021-04-21 15:34:35.873330,-96.01892
2021-04-21 15:34:35.888950,-97.48265
2021-04-21 15:34:35.904580,-103.6453
2021-04-21 15:34:35.920210,-112.4315
2021-04-21 15:34:35.935830,-121.6665
2021-04-21 15:34:35.951460,-129.4158
2021-04-21 15:34:35.967080,-134.1409
2021-04-21 15:34:35.982710,-135.0992
2021-04-21 15:34:35.998330,-132.431
2021-04-21 15:34:36.013960,-127.3799
2021-04-21 15:34:36.029590,-121.537
2021-04-21 15:34:36.045210,-116.1381
2021-04-21 15:34:36.060840,-111.6755
2021-04-21 15:34:36.076460,-107.9771
2021-04-21 15:34:36.092090,-104.4624
2021-04-21 15:34:36.107710,-100.4583
2021-04-21 15:34:36.123340,-95.27452
2021-04-21 15:34:36.138970,-88.19006
2021-04-21 15:34:36.154590,-78.62901
2021-04-21 15:34:36.170220,-66.52092
2021-04-21 15:34:36.185840,-52.71568
2021-04-21 15:34:36.201470,-39.09723
2021-04-21 15:34:36.217090,-28.11465
2021-04-21 15:34:36.232720,-21.98785
2021-04-21 15:34:36.248350,-21.87936
2021-04-21 15:34:36.263970,-27.54587
2021-04-21 15:34:36.279600,-37.50399
2021-04-21 15:34:36.295220,-49.66145
2021-04-21 15:34:36.310850,-61.93057
2021-04-21 15:34:36.326470,-72.56427
2021-04-21 15:34:36.342100,-80.25951
2021-04-21 15:34:36.357730,-84.16257
2021-04-21 15:34:36.373350,-83.99905
2021-04-21 15:34:36.388980,-80.33597
2021-04-21 15:34:36.404600,-74.57222
2021-04-21 15:34:36.420230,-68.61426
2021-04-21 15:34:36.435850,-64.20196
2021-04-21 15:34:36.451480,-62.1767
2021-04-21 15:34:36.467110,-62.17424
2021-04-21 15:34:36.482730,-62.94333
2021-04-21 15:34:36.498360,-63.06358
2021-04-21 15:34:36.513980,-61.78692
2021-04-21 15:34:36.529610,-59.43143
2021-04-21 15:34:36.545230,-57.15388
2021-04-21 15:34:36.560860,-56.26641
2021-04-21 15:34:36.576490,-57.366
2021-04-21 15:34:36.592110,-59.81139
2021-04-21 15:34:36.607740,-61.74594
2021-04-21 15:34:36.623360,-60.57095
2021-04-21 15:34:36.638990,-53.79095
2021-04-21 15:34:36.654610,-39.83395
2021-04-21 15:34:36.670240,-18.73747
2021-04-21 15:34:36.685870,7.633896
2021-04-21 15:34:36.701490,35.87802
2021-04-21 15:34:36.717120,61.85268
2021-04-21 15:34:36.732740,81.77469
2021-04-21 15:34:36.748370,93.3259
2021-04-21 15:34:36.763990,96.27441
2021-04-21 15:34:36.779620,92.45927
2021-04-21 15:34:36.795250,85.10173
2021-04-21 15:34:36.810870,77.74048
2021-04-21 15:34:36.826500,73.21527
2021-04-21 15:34:36.842120,72.97885
2021-04-21 15:34:36.857750,76.97205
2021-04-21 15:34:36.873370,83.84604
2021-04-21 15:34:36.889000,91.56116
2021-04-21 15:34:36.904630,98.13373
2021-04-21 15:34:36.920250,102.3654
2021-04-21 15:34:36.935880,104.2929
2021-04-21 15:34:36.951500,105.1209
2021-04-21 15:34:36.967130,106.4977
2021-04-21 15:34:36.998380,114.1747
2021-04-21 15:34:37.014010,118.8369
2021-04-21 15:34:37.029630,121.3784
2021-04-21 15:34:37.045260,120.0336
2021-04-21 15:34:37.060880,114.2689
2021-04-21 15:34:37.076510,104.8672
2021-04-21 15:34:37.092130,93.29077
2021-04-21 15:34:37.107760,80.85175
2021-04-21 15:34:37.123390,68.12732
2021-04-21 15:34:37.139010,55.06769
2021-04-21 15:34:37.154640,41.50897
2021-04-21 15:34:37.170260,27.65887
2021-04-21 15:34:37.185890,14.18207
2021-04-21 15:34:37.201510,1.859283
2021-04-21 15:34:37.217140,-8.790771
2021-04-21 15:34:37.232770,-17.73996
2021-04-21 15:34:37.248390,-25.18732
2021-04-21 15:34:37.264020,-31.18527
2021-04-21 15:34:37.279640,-35.38181
2021-04-21 15:34:37.295270,-37.12369
2021-04-21 15:34:37.310890,-35.78036
2021-04-21 15:34:37.326520,-31.14194
2021-04-21 15:34:37.342150,-23.63556
2021-04-21 15:34:37.357770,-14.26764
2021-04-21 15:34:37.373400,-4.333405
2021-04-21 15:34:37.389020,4.73941
2021-04-21 15:34:37.404650,11.55557
2021-04-21 15:34:37.420270,14.93262
2021-04-21 15:34:37.435900,14.22198
2021-04-21 15:34:37.451530,9.770752
2021-04-21 15:34:37.467150,3.2771
2021-04-21 15:34:37.482780,-2.328979
2021-04-21 15:34:37.498400,-3.660522
2021-04-21 15:34:37.514030,1.816956
2021-04-21 15:34:37.529650,14.49091
2021-04-21 15:34:37.545280,32.01184
2021-04-21 15:34:37.560910,49.77295
2021-04-21 15:34:37.576530,62.44513
2021-04-21 15:34:37.592160,65.97375
2021-04-21 15:34:37.607780,59.1369
2021-04-21 15:34:37.623410,44.00043
2021-04-21 15:34:37.639040,25.10303
2021-04-21 15:34:37.654660,7.710876
2021-04-21 15:34:37.670290,-4.040283
2021-04-21 15:34:37.685910,-8.30011
2021-04-21 15:34:37.701540,-5.694519
2021-04-21 15:34:37.717160,1.422302
2021-04-21 15:34:37.732790,10.09344
2021-04-21 15:34:37.748420,17.76453
2021-04-21 15:34:37.764040,22.90741
2021-04-21 15:34:37.779670,25.19849
2021-04-21 15:34:37.795290,25.38269
2021-04-21 15:34:37.810920,25.00757
2021-04-21 15:34:37.826540,26.00098
2021-04-21 15:34:37.842170,30.14502
2021-04-21 15:34:37.857800,38.38831
2021-04-21 15:34:37.873420,50.3656
2021-04-21 15:34:37.889050,64.28345
2021-04-21 15:34:37.904670,77.30994
2021-04-21 15:34:37.920300,86.45886
2021-04-21 15:34:37.935920,89.5282
2021-04-21 15:34:37.951550,85.70374
2021-04-21 15:34:37.967180,75.646
2021-04-21 15:34:37.982800,61.11694
2021-04-21 15:34:37.998430,44.31201
2021-04-21 15:34:38.014050,27.24805
2021-04-21 15:34:38.029680,11.34601
2021-04-21 15:34:38.045300,-2.717712
2021-04-21 15:34:38.060930,-14.97192
2021-04-21 15:34:38.076560,-25.94751
2021-04-21 15:34:38.092180,-36.36066
2021-04-21 15:34:38.107810,-46.76624
2021-04-21 15:34:38.123430,-57.33856
2021-04-21 15:34:38.139060,-67.78693
2021-04-21 15:34:38.154680,-77.46021
2021-04-21 15:34:38.170310,-85.67798
2021-04-21 15:34:38.185940,-92.01416
2021-04-21 15:34:38.201560,-96.47772
2021-04-21 15:34:38.217190,-99.51898
2021-04-21 15:34:38.232810,-101.7837
2021-04-21 15:34:38.248440,-103.8729
2021-04-21 15:34:38.264060,-106.0989
2021-04-21 15:34:38.279690,-108.3799
2021-04-21 15:34:38.295320,-110.2366
2021-04-21 15:34:38.310940,-111.0381
2021-04-21 15:34:38.326570,-110.2696
2021-04-21 15:34:38.342190,-107.8795
2021-04-21 15:34:38.357820,-104.4946
2021-04-21 15:34:38.373440,-101.4116
2021-04-21 15:34:38.389070,-100.1689
2021-04-21 15:34:38.404700,-101.8719
2021-04-21 15:34:38.420320,-106.3488
2021-04-21 15:34:38.435950,-111.6212
2021-04-21 15:34:38.451570,-114.0848
2021-04-21 15:34:38.467200,-109.5263
2021-04-21 15:34:38.482820,-94.61987
2021-04-21 15:34:38.498450,-68.36633
2021-04-21 15:34:38.514080,-32.71631
2021-04-21 15:34:38.529700,7.95636
2021-04-21 15:34:38.545330,48.21716
2021-04-21 15:34:38.560950,83.26697
2021-04-21 15:34:38.576580,110.137
2021-04-21 15:34:38.592200,128.0064
2021-04-21 15:34:38.607830,137.6686
2021-04-21 15:34:38.623460,140.6461
2021-04-21 15:34:38.639080,138.4958
2021-04-21 15:34:38.654710,132.5555
2021-04-21 15:34:38.670330,124.1293
2021-04-21 15:34:38.685960,114.6644
2021-04-21 15:34:38.701580,105.7727
2021-04-21 15:34:38.717210,98.81622
2021-04-21 15:34:38.732840,94.4657
2021-04-21 15:34:38.748460,92.34814
2021-04-21 15:34:38.764090,91.17859
2021-04-21 15:34:38.779710,89.17029
2021-04-21 15:34:38.795340,84.70013
2021-04-21 15:34:38.810960,76.83862
2021-04-21 15:34:38.826590,65.57928
2021-04-21 15:34:38.842220,51.57721
2021-04-21 15:34:38.857840,35.76636
2021-04-21 15:34:38.873470,18.97766
2021-04-21 15:34:38.889090,1.850769
2021-04-21 15:34:38.904720,-14.96912
2021-04-21 15:34:38.920340,-30.54327
2021-04-21 15:34:38.935970,-43.53717
2021-04-21 15:34:38.951600,-52.39606
2021-04-21 15:34:38.967220,-55.88672
2021-04-21 15:34:38.982850,-53.59027
2021-04-21 15:34:38.998470,-46.22034
2021-04-21 15:34:39.014100,-35.46881
2021-04-21 15:34:39.029720,-23.54913
2021-04-21 15:34:39.045350,-12.55292
2021-04-21 15:34:39.060980,-3.95575
2021-04-21 15:34:39.076600,1.592041
2021-04-21 15:34:39.092230,4.194458
2021-04-21 15:34:39.107850,4.453735
2021-04-21 15:34:39.123480,3.181763
2021-04-21 15:34:39.139100,1.226013
2021-04-21 15:34:39.154730,-0.6397705
2021-04-21 15:34:39.170360,-1.779907
2021-04-21 15:34:39.185980,-1.809937
2021-04-21 15:34:39.201610,-0.6408691
2021-04-21 15:34:39.232860,3.711304
2021-04-21 15:34:39.248480,5.476868
2021-04-21 15:34:39.264110,6.049744
2021-04-21 15:34:39.279740,5.160461
2021-04-21 15:34:39.295360,3.039368
2021-04-21 15:34:39.310990,0.3234253
2021-04-21 15:34:39.326610,-2.149902
2021-04-21 15:34:39.342240,-3.70343
2021-04-21 15:34:39.357860,-4.080444
2021-04-21 15:34:39.373490,-3.528137
2021-04-21 15:34:39.389120,-2.785339
2021-04-21 15:34:39.404740,-2.796997
2021-04-21 15:34:39.420370,-4.38092
2021-04-21 15:34:39.435990,-7.837769
2021-04-21 15:34:39.451620,-12.69385
2021-04-21 15:34:39.467240,-17.69659
2021-04-21 15:34:39.482870,-21.13184
2021-04-21 15:34:39.498500,-21.39746
2021-04-21 15:34:39.514120,-17.56952
2021-04-21 15:34:39.529750,-9.781982
2021-04-21 15:34:39.545370,0.8079224
2021-04-21 15:34:39.561000,12.43182
2021-04-21 15:34:39.576620,23.34436
2021-04-21 15:34:39.592250,32.33105
2021-04-21 15:34:39.607880,38.94324
2021-04-21 15:34:39.623500,43.39984
2021-04-21 15:34:39.639130,46.18457
2021-04-21 15:34:39.654750,47.75586
2021-04-21 15:34:39.670380,48.31818
2021-04-21 15:34:39.686000,47.89471
2021-04-21 15:34:39.701630,46.51196
2021-04-21 15:34:39.717260,44.36108
2021-04-21 15:34:39.732880,41.8194
2021-04-21 15:34:39.748510,39.31879
2021-04-21 15:34:39.764130,37.16003
2021-04-21 15:34:39.779760,35.32471
2021-04-21 15:34:39.795390,33.53345
2021-04-21 15:34:39.811010,31.34326
2021-04-21 15:34:39.826640,28.40582
2021-04-21 15:34:39.842260,24.62897
2021-04-21 15:34:39.857890,20.20129
2021-04-21 15:34:39.873510,15.4931
2021-04-21 15:34:39.889140,10.85486
2021-04-21 15:34:39.904770,6.458984
2021-04-21 15:34:39.920390,2.231567
2021-04-21 15:34:39.936020,-2.042053
2021-04-21 15:34:39.951640,-6.653076
2021-04-21 15:34:39.967270,-11.81555
2021-04-21 15:34:39.982890,-17.58087
2021-04-21 15:34:39.998520,-23.82977
2021-04-21 15:34:40.014150,-30.18756
2021-04-21 15:34:40.029770,-36.04437
2021-04-21 15:34:40.045400,-40.54266
2021-04-21 15:34:40.061020,-42.69983
2021-04-21 15:34:40.076650,-41.67474
2021-04-21 15:34:40.092270,-37.04346
2021-04-21 15:34:40.107900,-29.02832
2021-04-21 15:34:40.123530,-18.55634
2021-04-21 15:34:40.139150,-7.041748
2021-04-21 15:34:40.154780,4.005188
2021-04-21 15:34:40.170400,13.36066
2021-04-21 15:34:40.186030,20.3504
2021-04-21 15:34:40.201650,24.82751
2021-04-21 15:34:40.217280,26.953
2021-04-21 15:34:40.232910,26.98865
2021-04-21 15:34:40.248530,25.22485
2021-04-21 15:34:40.264160,22.03589
2021-04-21 15:34:40.279780,17.98291
2021-04-21 15:34:40.295410,13.8786
2021-04-21 15:34:40.311030,10.57428
2021-04-21 15:34:40.326660,8.68219
2021-04-21 15:34:40.342290,8.255432
2021-04-21 15:34:40.357910,8.739258
2021-04-21 15:34:40.373540,9.108643
2021-04-21 15:34:40.389160,8.297546
2021-04-21 15:34:40.404790,5.575317
2021-04-21 15:34:40.420410,0.8025513
2021-04-21 15:34:40.436040,-5.579102
2021-04-21 15:34:40.451670,-12.74805
2021-04-21 15:34:40.467290,-19.76123
2021-04-21 15:34:40.482920,-25.76965
2021-04-21 15:34:40.498540,-30.16394
2021-04-21 15:34:40.514170,-32.66663
2021-04-21 15:34:40.529790,-33.37488
2021-04-21 15:34:40.545420,-32.75793
2021-04-21 15:34:40.561050,-31.48895
2021-04-21 15:34:40.576670,-30.1709
2021-04-21 15:34:40.592300,-29.02594
2021-04-21 15:34:40.607920,-27.7149
2021-04-21 15:34:40.623550,-25.42969
2021-04-21 15:34:40.639170,-21.24603
2021-04-21 15:34:40.654800,-14.59821
2021-04-21 15:34:40.670430,-5.643433
2021-04-21 15:34:40.686050,4.719177
2021-04-21 15:34:40.701680,15.12415
2021-04-21 15:34:40.717300,24.21545
2021-04-21 15:34:40.732930,31.05005
2021-04-21 15:34:40.748550,35.33051
2021-04-21 15:34:40.764180,37.25409
2021-04-21 15:34:40.779810,37.2677
2021-04-21 15:34:40.795430,35.80524
2021-04-21 15:34:40.811060,33.16144
2021-04-21 15:34:40.826680,29.58813
2021-04-21 15:34:40.842310,25.47626
2021-04-21 15:34:40.857930,21.45966
2021-04-21 15:34:40.873560,18.33313
2021-04-21 15:34:40.889190,16.79468
2021-04-21 15:34:40.904810,17.11395
2021-04-21 15:34:40.920440,18.97461
2021-04-21 15:34:40.936060,21.54968
2021-04-21 15:34:40.951690,23.82544
2021-04-21 15:34:40.967310,25.00732
2021-04-21 15:34:40.982940,24.78345
2021-04-21 15:34:40.998570,23.40118
2021-04-21 15:34:41.014190,21.38062
2021-04-21 15:34:41.029820,19.23541
2021-04-21 15:34:41.045440,17.18451
2021-04-21 15:34:41.061070,15.1109
2021-04-21 15:34:41.076690,12.66663
2021-04-21 15:34:41.092320,9.445801
2021-04-21 15:34:41.107950,5.140442
2021-04-21 15:34:41.123570,-0.3969727
2021-04-21 15:34:41.139200,-7.069336
2021-04-21 15:34:41.154820,-14.45313
2021-04-21 15:34:41.170450,-21.79346
2021-04-21 15:34:41.186070,-27.99573
2021-04-21 15:34:41.201700,-31.86823
2021-04-21 15:34:41.217330,-32.42346
2021-04-21 15:34:41.232950,-29.29297
2021-04-21 15:34:41.248580,-22.88446
2021-04-21 15:34:41.264200,-14.37164
2021-04-21 15:34:41.279830,-5.258789
2021-04-21 15:34:41.295450,3.075928
2021-04-21 15:34:41.311080,9.834778
2021-04-21 15:34:41.326710,14.93542
2021-04-21 15:34:41.342330,18.80499
2021-04-21 15:34:41.357960,21.97272
2021-04-21 15:34:41.373580,24.76215
2021-04-21 15:34:41.389210,27.12775
2021-04-21 15:34:41.404830,28.81537
2021-04-21 15:34:41.420460,29.62201
2021-04-21 15:34:41.436090,29.60297
2021-04-21 15:34:41.451710,29.11053
2021-04-21 15:34:41.467340,28.6106
2021-04-21 15:34:41.482960,28.42944
2021-04-21 15:34:41.498590,28.60095
2021-04-21 15:34:41.514210,28.81781
2021-04-21 15:34:41.529840,28.61121
2021-04-21 15:34:41.545470,27.54315
2021-04-21 15:34:41.561090,25.47052
2021-04-21 15:34:41.576720,22.66254
2021-04-21 15:34:41.592340,19.79279
2021-04-21 15:34:41.607970,17.75269
2021-04-21 15:34:41.623590,17.3468
2021-04-21 15:34:41.639220,18.96161
2021-04-21 15:34:41.654850,22.39252
2021-04-21 15:34:41.670470,26.86945
2021-04-21 15:34:41.686100,31.32941
2021-04-21 15:34:41.701720,34.77557
2021-04-21 15:34:41.717350,36.56421
2021-04-21 15:34:41.732970,36.55841
2021-04-21 15:34:41.748600,35.0271
2021-04-21 15:34:41.764230,32.39966
2021-04-21 15:34:41.779850,29.08911
2021-04-21 15:34:41.795480,25.3465
2021-04-21 15:34:41.811100,21.2738
2021-04-21 15:34:41.826730,16.86694
2021-04-21 15:34:41.842350,12.12982
2021-04-21 15:34:41.857980,7.119446
2021-04-21 15:34:41.873610,2.026978
2021-04-21 15:34:41.889230,-2.902649
2021-04-21 15:34:41.904860,-7.407532
