Datetime,value
BVP
2021-04-20 17:47:03.842740,17.32348
2021-04-20 17:47:03.858360,13.69818
2021-04-20 17:47:03.873990,9.650501
2021-04-20 17:47:03.889620,5.476589
2021-04-20 17:47:03.905240,1.389969
2021-04-20 17:47:03.920870,-2.51329
2021-04-20 17:47:03.936490,-6.265957
2021-04-20 17:47:03.952120,-10.02105
2021-04-20 17:47:03.967740,-14.06021
2021-04-20 17:47:03.983370,-18.74106
2021-04-20 17:47:03.999000,-24.3725
2021-04-20 17:47:04.014620,-31.12428
2021-04-20 17:47:04.030250,-38.86679
2021-04-20 17:47:04.045870,-47.0423
2021-04-20 17:47:04.061500,-54.63766
2021-04-20 17:47:04.077120,-60.33118
2021-04-20 17:47:04.092750,-62.82351
2021-04-20 17:47:04.108380,-61.21452
2021-04-20 17:47:04.124000,-55.35353
2021-04-20 17:47:04.139630,-45.91329
2021-04-20 17:47:04.155250,-34.23025
2021-04-20 17:47:04.170880,-21.86941
2021-04-20 17:47:04.186500,-10.20974
2021-04-20 17:47:04.202130,-0.1246109
2021-04-20 17:47:04.217760,8.096436
2021-04-20 17:47:04.233380,14.65619
2021-04-20 17:47:04.249010,19.92504
2021-04-20 17:47:04.264630,24.2249
2021-04-20 17:47:04.280260,27.67563
2021-04-20 17:47:04.295880,30.22823
2021-04-20 17:47:04.311510,31.77067
2021-04-20 17:47:04.327140,32.27444
2021-04-20 17:47:04.342760,31.89039
2021-04-20 17:47:04.358390,30.91941
2021-04-20 17:47:04.374010,29.68876
2021-04-20 17:47:04.389640,28.4819
2021-04-20 17:47:04.405260,27.44869
2021-04-20 17:47:04.420890,26.62037
2021-04-20 17:47:04.436520,25.97608
2021-04-20 17:47:04.452140,25.46655
2021-04-20 17:47:04.467770,25.0538
2021-04-20 17:47:04.483390,24.67539
2021-04-20 17:47:04.499020,24.22205
2021-04-20 17:47:04.514640,23.54534
2021-04-20 17:47:04.530270,22.47438
2021-04-20 17:47:04.545900,20.92843
2021-04-20 17:47:04.561520,18.90253
2021-04-20 17:47:04.577150,16.49926
2021-04-20 17:47:04.592770,13.79758
2021-04-20 17:47:04.608400,10.83666
2021-04-20 17:47:04.624020,7.571689
2021-04-20 17:47:04.639650,3.915738
2021-04-20 17:47:04.655280,-0.2135267
2021-04-20 17:47:04.670900,-4.841418
2021-04-20 17:47:04.686530,-9.952841
2021-04-20 17:47:04.702150,-15.49887
2021-04-20 17:47:04.717780,-21.4597
2021-04-20 17:47:04.733400,-27.86298
2021-04-20 17:47:04.749030,-34.75354
2021-04-20 17:47:04.764660,-42.14713
2021-04-20 17:47:04.780280,-49.94198
2021-04-20 17:47:04.795910,-57.8134
2021-04-20 17:47:04.811530,-65.13339
2021-04-20 17:47:04.827160,-70.99332
2021-04-20 17:47:04.842780,-74.30956
2021-04-20 17:47:04.858410,-74.06344
2021-04-20 17:47:04.874040,-69.61223
2021-04-20 17:47:04.889660,-60.93197
2021-04-20 17:47:04.905290,-48.71566
2021-04-20 17:47:04.936540,-18.97239
2021-04-20 17:47:04.952160,-4.390478
2021-04-20 17:47:04.967790,8.445221
2021-04-20 17:47:04.983420,18.90649
2021-04-20 17:47:04.999040,26.76707
2021-04-20 17:47:05.014670,32.0363
2021-04-20 17:47:05.030290,34.86662
2021-04-20 17:47:05.045920,35.49783
2021-04-20 17:47:05.061540,34.272
2021-04-20 17:47:05.077170,31.66872
2021-04-20 17:47:05.092800,28.30752
2021-04-20 17:47:05.108420,24.84146
2021-04-20 17:47:05.124050,21.78392
2021-04-20 17:47:05.139670,19.35202
2021-04-20 17:47:05.155300,17.4128
2021-04-20 17:47:05.170930,15.5579
2021-04-20 17:47:05.186550,13.36621
2021-04-20 17:47:05.202180,10.57291
2021-04-20 17:47:05.217800,7.266775
2021-04-20 17:47:05.233430,3.764144
2021-04-20 17:47:05.249050,0.4305944
2021-04-20 17:47:05.264680,-2.509551
2021-04-20 17:47:05.280310,-5.153397
2021-04-20 17:47:05.295930,-7.819658
2021-04-20 17:47:05.311560,-10.92346
2021-04-20 17:47:05.327180,-14.75135
2021-04-20 17:47:05.342810,-19.31176
2021-04-20 17:47:05.358430,-24.33828
2021-04-20 17:47:05.374060,-29.33881
2021-04-20 17:47:05.389690,-33.76668
2021-04-20 17:47:05.405310,-37.19325
2021-04-20 17:47:05.420940,-39.46099
2021-04-20 17:47:05.436560,-40.71795
2021-04-20 17:47:05.452190,-41.40482
2021-04-20 17:47:05.467810,-42.1151
2021-04-20 17:47:05.483440,-43.50103
2021-04-20 17:47:05.499070,-46.07809
2021-04-20 17:47:05.514690,-50.02614
2021-04-20 17:47:05.530320,-54.9706
2021-04-20 17:47:05.545940,-59.9591
2021-04-20 17:47:05.561570,-63.61188
2021-04-20 17:47:05.577190,-64.46461
2021-04-20 17:47:05.592820,-61.45124
2021-04-20 17:47:05.608450,-54.24828
2021-04-20 17:47:05.624070,-43.38334
2021-04-20 17:47:05.639700,-30.05683
2021-04-20 17:47:05.655320,-15.73616
2021-04-20 17:47:05.670950,-1.802055
2021-04-20 17:47:05.686570,10.71251
2021-04-20 17:47:05.702200,21.15383
2021-04-20 17:47:05.717830,29.19785
2021-04-20 17:47:05.733450,34.76828
2021-04-20 17:47:05.749080,38.02517
2021-04-20 17:47:05.764700,39.3317
2021-04-20 17:47:05.780330,39.20803
2021-04-20 17:47:05.795950,38.19829
2021-04-20 17:47:05.811580,36.75779
2021-04-20 17:47:05.827210,35.24055
2021-04-20 17:47:05.842830,33.96098
2021-04-20 17:47:05.858460,33.29516
2021-04-20 17:47:05.874080,33.71719
2021-04-20 17:47:05.889710,35.63087
2021-04-20 17:47:05.905330,39.23528
2021-04-20 17:47:05.920960,44.33401
2021-04-20 17:47:05.936590,50.36949
2021-04-20 17:47:05.952210,56.57441
2021-04-20 17:47:05.967840,62.18005
2021-04-20 17:47:05.983460,66.64752
2021-04-20 17:47:05.999090,69.68098
2021-04-20 17:47:06.014710,71.16719
2021-04-20 17:47:06.030340,71.07859
2021-04-20 17:47:06.045970,69.42363
2021-04-20 17:47:06.061590,66.22891
2021-04-20 17:47:06.077220,61.6263
2021-04-20 17:47:06.092840,55.80248
2021-04-20 17:47:06.108470,48.95655
2021-04-20 17:47:06.124090,41.16502
2021-04-20 17:47:06.155350,22.30369
2021-04-20 17:47:06.170970,10.89613
2021-04-20 17:47:06.186600,-1.736282
2021-04-20 17:47:06.202220,-15.06375
2021-04-20 17:47:06.217850,-28.13393
2021-04-20 17:47:06.233470,-39.72011
2021-04-20 17:47:06.249100,-48.58855
2021-04-20 17:47:06.264730,-53.76239
2021-04-20 17:47:06.280350,-54.77335
2021-04-20 17:47:06.295980,-51.78219
2021-04-20 17:47:06.311600,-45.48
2021-04-20 17:47:06.327230,-36.95153
2021-04-20 17:47:06.342850,-27.43269
2021-04-20 17:47:06.358480,-18.04923
2021-04-20 17:47:06.374110,-9.665031
2021-04-20 17:47:06.389730,-2.795517
2021-04-20 17:47:06.405360,2.393265
2021-04-20 17:47:06.420980,5.993057
2021-04-20 17:47:06.436610,8.263138
2021-04-20 17:47:06.452230,9.514824
2021-04-20 17:47:06.467860,9.987183
2021-04-20 17:47:06.483490,9.81163
2021-04-20 17:47:06.499110,8.965034
2021-04-20 17:47:06.514740,7.38665
2021-04-20 17:47:06.530360,5.0159
2021-04-20 17:47:06.545990,1.917862
2021-04-20 17:47:06.561610,-1.741516
2021-04-20 17:47:06.577240,-5.705467
2021-04-20 17:47:06.592870,-9.659584
2021-04-20 17:47:06.608490,-13.35226
2021-04-20 17:47:06.624120,-16.64223
2021-04-20 17:47:06.639740,-19.56504
2021-04-20 17:47:06.655370,-22.37423
2021-04-20 17:47:06.670990,-25.42954
2021-04-20 17:47:06.686620,-29.10782
2021-04-20 17:47:06.702250,-33.64228
2021-04-20 17:47:06.717870,-39.03117
2021-04-20 17:47:06.733500,-45.02587
2021-04-20 17:47:06.749120,-51.2394
2021-04-20 17:47:06.764750,-57.24813
2021-04-20 17:47:06.780370,-62.71272
2021-04-20 17:47:06.796000,-67.41428
2021-04-20 17:47:06.811630,-71.30585
2021-04-20 17:47:06.827250,-74.49059
2021-04-20 17:47:06.842880,-77.26665
2021-04-20 17:47:06.858500,-80.02934
2021-04-20 17:47:06.874130,-83.14829
2021-04-20 17:47:06.889750,-86.65468
2021-04-20 17:47:06.905380,-90.01598
2021-04-20 17:47:06.921010,-92.11446
2021-04-20 17:47:06.936630,-91.52103
2021-04-20 17:47:06.952260,-86.96748
2021-04-20 17:47:06.967880,-77.87613
2021-04-20 17:47:06.983510,-64.56522
2021-04-20 17:47:06.999130,-48.10367
2021-04-20 17:47:07.014760,-29.88771
2021-04-20 17:47:07.030390,-11.15599
2021-04-20 17:47:07.046010,7.298691
2021-04-20 17:47:07.061640,25.09039
2021-04-20 17:47:07.077260,42.02428
2021-04-20 17:47:07.092890,57.86256
2021-04-20 17:47:07.108510,72.2719
2021-04-20 17:47:07.124140,84.93066
2021-04-20 17:47:07.139770,95.73622
2021-04-20 17:47:07.155390,104.848
2021-04-20 17:47:07.171020,112.5887
2021-04-20 17:47:07.186640,119.2254
2021-04-20 17:47:07.202270,124.797
2021-04-20 17:47:07.217890,129.1052
2021-04-20 17:47:07.233520,131.8791
2021-04-20 17:47:07.264770,132.3519
2021-04-20 17:47:07.280400,130.3911
2021-04-20 17:47:07.296020,127.4118
2021-04-20 17:47:07.311650,123.6912
2021-04-20 17:47:07.327280,119.331
2021-04-20 17:47:07.342900,114.2973
2021-04-20 17:47:07.358530,108.4913
2021-04-20 17:47:07.374150,101.8654
2021-04-20 17:47:07.389780,94.47379
2021-04-20 17:47:07.405400,86.461
2021-04-20 17:47:07.421030,77.99846
2021-04-20 17:47:07.436660,69.27774
2021-04-20 17:47:07.452280,60.44743
2021-04-20 17:47:07.467910,51.59596
2021-04-20 17:47:07.483530,42.73154
2021-04-20 17:47:07.499160,33.74893
2021-04-20 17:47:07.514780,24.41594
2021-04-20 17:47:07.530410,14.49893
2021-04-20 17:47:07.546040,3.905182
2021-04-20 17:47:07.561660,-7.035995
2021-04-20 17:47:07.577290,-17.46629
2021-04-20 17:47:07.592910,-26.09331
2021-04-20 17:47:07.608540,-31.56293
2021-04-20 17:47:07.624160,-32.99362
2021-04-20 17:47:07.639790,-30.44557
2021-04-20 17:47:07.655420,-24.99362
2021-04-20 17:47:07.671040,-18.45389
2021-04-20 17:47:07.686670,-12.77216
2021-04-20 17:47:07.702290,-9.467285
2021-04-20 17:47:07.717920,-9.287743
2021-04-20 17:47:07.733540,-12.24761
2021-04-20 17:47:07.749170,-17.8614
2021-04-20 17:47:07.764800,-25.45742
2021-04-20 17:47:07.780420,-34.26191
2021-04-20 17:47:07.796050,-43.43564
2021-04-20 17:47:07.811670,-52.02266
2021-04-20 17:47:07.827300,-59.06523
2021-04-20 17:47:07.842920,-63.83457
2021-04-20 17:47:07.858550,-66.08527
2021-04-20 17:47:07.874180,-66.18364
2021-04-20 17:47:07.889800,-64.93599
2021-04-20 17:47:07.905430,-63.19472
2021-04-20 17:47:07.921050,-61.4912
2021-04-20 17:47:07.936680,-59.78517
2021-04-20 17:47:07.952300,-57.54535
2021-04-20 17:47:07.967930,-53.96284
2021-04-20 17:47:07.983560,-48.36234
2021-04-20 17:47:07.999180,-40.37284
2021-04-20 17:47:08.014810,-30.13725
2021-04-20 17:47:08.030430,-18.24623
2021-04-20 17:47:08.046060,-5.663406
2021-04-20 17:47:08.061680,6.462734
2021-04-20 17:47:08.077310,17.03512
2021-04-20 17:47:08.092940,25.25336
2021-04-20 17:47:08.108560,30.75169
2021-04-20 17:47:08.124190,33.6068
2021-04-20 17:47:08.139810,34.22109
2021-04-20 17:47:08.155440,33.1376
2021-04-20 17:47:08.171060,30.85835
2021-04-20 17:47:08.186690,27.84318
2021-04-20 17:47:08.202320,24.43768
2021-04-20 17:47:08.217940,20.89124
2021-04-20 17:47:08.233570,17.28722
2021-04-20 17:47:08.249190,13.52409
2021-04-20 17:47:08.264820,9.331522
2021-04-20 17:47:08.280440,4.501974
2021-04-20 17:47:08.296070,-0.9406061
2021-04-20 17:47:08.311700,-6.607244
2021-04-20 17:47:08.327320,-11.861
2021-04-20 17:47:08.342950,-16.06349
2021-04-20 17:47:08.358570,-18.80264
2021-04-20 17:47:08.374200,-19.99899
2021-04-20 17:47:08.389820,-19.8413
2021-04-20 17:47:08.405450,-18.59729
2021-04-20 17:47:08.421080,-16.48376
2021-04-20 17:47:08.436700,-13.64157
2021-04-20 17:47:08.452330,-10.17974
2021-04-20 17:47:08.467950,-6.190362
2021-04-20 17:47:08.483580,-1.812778
2021-04-20 17:47:08.499200,2.825449
2021-04-20 17:47:08.514830,7.552354
2021-04-20 17:47:08.530460,12.14626
2021-04-20 17:47:08.546080,16.29992
2021-04-20 17:47:08.561710,19.68353
2021-04-20 17:47:08.577330,22.00292
2021-04-20 17:47:08.592960,23.11129
2021-04-20 17:47:08.608580,23.04607
2021-04-20 17:47:08.624210,21.918
2021-04-20 17:47:08.639840,19.85499
2021-04-20 17:47:08.655460,16.9194
2021-04-20 17:47:08.671090,13.18953
2021-04-20 17:47:08.686710,8.884144
2021-04-20 17:47:08.702340,4.454544
2021-04-20 17:47:08.717960,0.515316
2021-04-20 17:47:08.733590,-2.37022
2021-04-20 17:47:08.749220,-3.972599
2021-04-20 17:47:08.764840,-4.539532
2021-04-20 17:47:08.780470,-4.763435
2021-04-20 17:47:08.796090,-5.455109
2021-04-20 17:47:08.811720,-7.254166
2021-04-20 17:47:08.827340,-10.30607
2021-04-20 17:47:08.842970,-14.28482
2021-04-20 17:47:08.858600,-18.5633
2021-04-20 17:47:08.874220,-22.56863
2021-04-20 17:47:08.889850,-26.03278
2021-04-20 17:47:08.905470,-29.14408
2021-04-20 17:47:08.921100,-32.40336
2021-04-20 17:47:08.936720,-36.37981
2021-04-20 17:47:08.952350,-41.2981
2021-04-20 17:47:08.967980,-46.86339
2021-04-20 17:47:08.983600,-52.19811
2021-04-20 17:47:08.999230,-56.09584
2021-04-20 17:47:09.014850,-57.37886
2021-04-20 17:47:09.030480,-55.28204
2021-04-20 17:47:09.046100,-49.70293
2021-04-20 17:47:09.061730,-41.21075
2021-04-20 17:47:09.077360,-30.84031
2021-04-20 17:47:09.092980,-19.79913
2021-04-20 17:47:09.108610,-9.236557
2021-04-20 17:47:09.124230,-0.04515839
2021-04-20 17:47:09.139860,7.202553
2021-04-20 17:47:09.155480,12.24315
2021-04-20 17:47:09.171110,15.14086
2021-04-20 17:47:09.186740,16.19949
2021-04-20 17:47:09.202360,15.91706
2021-04-20 17:47:09.217990,14.87129
2021-04-20 17:47:09.233610,13.62913
2021-04-20 17:47:09.249240,12.59486
2021-04-20 17:47:09.264860,12.06297
2021-04-20 17:47:09.280490,12.13972
2021-04-20 17:47:09.296120,12.86009
2021-04-20 17:47:09.311740,14.23301
2021-04-20 17:47:09.327370,16.32524
2021-04-20 17:47:09.342990,19.2294
2021-04-20 17:47:09.358620,23.03692
2021-04-20 17:47:09.374240,27.73849
2021-04-20 17:47:09.389870,33.17822
2021-04-20 17:47:09.405500,39.0633
2021-04-20 17:47:09.421120,45.04539
2021-04-20 17:47:09.436750,50.80039
2021-04-20 17:47:09.452370,56.09064
2021-04-20 17:47:09.468000,60.77829
2021-04-20 17:47:09.483620,64.77905
2021-04-20 17:47:09.499250,67.97985
2021-04-20 17:47:09.530500,71.59755
2021-04-20 17:47:09.546130,71.94287
2021-04-20 17:47:09.561750,71.45189
2021-04-20 17:47:09.577380,70.37059
2021-04-20 17:47:09.593000,68.92422
2021-04-20 17:47:09.608630,67.2312
2021-04-20 17:47:09.624260,65.2366
2021-04-20 17:47:09.639880,62.86108
2021-04-20 17:47:09.655510,60.13124
2021-04-20 17:47:09.671130,57.30876
2021-04-20 17:47:09.686760,54.90288
2021-04-20 17:47:09.702380,53.40346
2021-04-20 17:47:09.718010,53.04491
2021-04-20 17:47:09.733640,53.57664
2021-04-20 17:47:09.749260,54.24564
2021-04-20 17:47:09.764890,54.08392
2021-04-20 17:47:09.780510,52.24704
2021-04-20 17:47:09.796140,48.29033
2021-04-20 17:47:09.811760,42.21265
2021-04-20 17:47:09.827390,34.29117
2021-04-20 17:47:09.843020,24.83969
2021-04-20 17:47:09.858640,14.11874
2021-04-20 17:47:09.874270,2.367081
2021-04-20 17:47:09.889890,-9.990128
2021-04-20 17:47:09.905520,-22.24835
2021-04-20 17:47:09.921140,-33.47253
2021-04-20 17:47:09.936770,-42.70438
2021-04-20 17:47:09.952400,-49.22443
2021-04-20 17:47:09.968020,-52.7486
2021-04-20 17:47:09.983650,-53.49176
2021-04-20 17:47:09.999270,-52.103
2021-04-20 17:47:10.014900,-49.47992
2021-04-20 17:47:10.030530,-46.5835
2021-04-20 17:47:10.046150,-44.2067
2021-04-20 17:47:10.061780,-42.82162
2021-04-20 17:47:10.077400,-42.51721
2021-04-20 17:47:10.093030,-42.98782
2021-04-20 17:47:10.108650,-43.7341
2021-04-20 17:47:10.124280,-44.18668
2021-04-20 17:47:10.139910,-43.97006
2021-04-20 17:47:10.155530,-43.02448
2021-04-20 17:47:10.171160,-41.66479
2021-04-20 17:47:10.186780,-40.52155
2021-04-20 17:47:10.202410,-40.47763
2021-04-20 17:47:10.218030,-42.49728
2021-04-20 17:47:10.233660,-47.44553
2021-04-20 17:47:10.249290,-55.89224
2021-04-20 17:47:10.264910,-67.89297
2021-04-20 17:47:10.280540,-82.86475
2021-04-20 17:47:10.296160,-99.55856
2021-04-20 17:47:10.311790,-116.252
2021-04-20 17:47:10.327410,-131.0956
2021-04-20 17:47:10.343040,-142.458
2021-04-20 17:47:10.358670,-149.2175
2021-04-20 17:47:10.374290,-150.9067
2021-04-20 17:47:10.389920,-147.6285
2021-04-20 17:47:10.405540,-139.8772
2021-04-20 17:47:10.421170,-128.3718
2021-04-20 17:47:10.436790,-113.9295
2021-04-20 17:47:10.452420,-97.41577
2021-04-20 17:47:10.468050,-79.73721
2021-04-20 17:47:10.483670,-61.76318
2021-04-20 17:47:10.499300,-44.23129
2021-04-20 17:47:10.514920,-27.68057
2021-04-20 17:47:10.530550,-12.47946
2021-04-20 17:47:10.546170,1.134827
2021-04-20 17:47:10.561800,13.00476
2021-04-20 17:47:10.577430,22.97684
2021-04-20 17:47:10.608680,37.20248
2021-04-20 17:47:10.624300,41.66306
2021-04-20 17:47:10.639930,44.62387
2021-04-20 17:47:10.655550,46.31314
2021-04-20 17:47:10.671180,46.93051
2021-04-20 17:47:10.686810,46.68262
2021-04-20 17:47:10.702430,45.73849
2021-04-20 17:47:10.718060,44.20447
2021-04-20 17:47:10.733680,42.01303
2021-04-20 17:47:10.749310,38.93488
2021-04-20 17:47:10.764930,34.67346
2021-04-20 17:47:10.780560,29.08023
2021-04-20 17:47:10.796190,22.30875
2021-04-20 17:47:10.811810,14.87296
2021-04-20 17:47:10.827440,7.474152
2021-04-20 17:47:10.843060,0.7599182
2021-04-20 17:47:10.858690,-4.900055
2021-04-20 17:47:10.874310,-9.486115
2021-04-20 17:47:10.889940,-13.3002
2021-04-20 17:47:10.905570,-16.72925
2021-04-20 17:47:10.921190,-20.03058
2021-04-20 17:47:10.936820,-23.11935
2021-04-20 17:47:10.952440,-25.48709
2021-04-20 17:47:10.968070,-26.29785
2021-04-20 17:47:10.983690,-24.64227
2021-04-20 17:47:10.999320,-19.92975
2021-04-20 17:47:11.014950,-12.21356
2021-04-20 17:47:11.030570,-2.292328
2021-04-20 17:47:11.046200,8.516205
2021-04-20 17:47:11.061820,18.77121
2021-04-20 17:47:11.077450,27.37827
2021-04-20 17:47:11.093070,33.81271
2021-04-20 17:47:11.108700,38.13449
2021-04-20 17:47:11.124330,40.72693
2021-04-20 17:47:11.139950,42.05185
2021-04-20 17:47:11.155580,42.48904
2021-04-20 17:47:11.171200,42.35895
2021-04-20 17:47:11.186830,41.94611
2021-04-20 17:47:11.202450,41.54486
2021-04-20 17:47:11.218080,41.37479
2021-04-20 17:47:11.233710,41.52963
2021-04-20 17:47:11.249330,41.84497
2021-04-20 17:47:11.264960,41.9621
2021-04-20 17:47:11.280580,41.43341
2021-04-20 17:47:11.296210,39.8949
2021-04-20 17:47:11.311830,37.19708
2021-04-20 17:47:11.327460,33.46109
2021-04-20 17:47:11.343090,28.98615
2021-04-20 17:47:11.358710,24.08829
2021-04-20 17:47:11.374340,18.97794
2021-04-20 17:47:11.389960,13.71841
2021-04-20 17:47:11.405590,8.245605
2021-04-20 17:47:11.421210,2.547913
2021-04-20 17:47:11.436840,-3.26178
2021-04-20 17:47:11.452470,-8.954437
2021-04-20 17:47:11.468090,-14.32544
2021-04-20 17:47:11.483720,-19.30246
2021-04-20 17:47:11.499340,-24.05453
2021-04-20 17:47:11.514970,-28.96255
2021-04-20 17:47:11.530590,-34.47427
2021-04-20 17:47:11.546220,-40.91632
2021-04-20 17:47:11.561850,-48.3757
2021-04-20 17:47:11.577470,-56.49286
2021-04-20 17:47:11.593100,-64.49384
2021-04-20 17:47:11.608720,-71.20523
2021-04-20 17:47:11.624350,-75.28671
2021-04-20 17:47:11.639970,-75.58456
2021-04-20 17:47:11.655600,-71.5433
2021-04-20 17:47:11.671230,-63.4433
2021-04-20 17:47:11.686850,-52.41855
2021-04-20 17:47:11.702480,-40.10529
2021-04-20 17:47:11.718100,-28.19305
2021-04-20 17:47:11.733730,-17.92752
2021-04-20 17:47:11.749350,-9.914276
2021-04-20 17:47:11.764980,-4.113403
2021-04-20 17:47:11.780610,-0.1062317
2021-04-20 17:47:11.796230,2.692535
2021-04-20 17:47:11.827480,6.646973
2021-04-20 17:47:11.843110,8.421814
2021-04-20 17:47:11.858730,10.21591
2021-04-20 17:47:11.874360,12.01306
2021-04-20 17:47:11.889990,13.74741
2021-04-20 17:47:11.905610,15.3739
2021-04-20 17:47:11.921240,16.93173
2021-04-20 17:47:11.936860,18.49686
2021-04-20 17:47:11.952490,20.13156
2021-04-20 17:47:11.968110,21.79626
2021-04-20 17:47:11.983740,23.32855
2021-04-20 17:47:11.999370,24.50497
2021-04-20 17:47:12.014990,25.14938
2021-04-20 17:47:12.030620,25.1691
2021-04-20 17:47:12.046240,24.59021
2021-04-20 17:47:12.061870,23.45221
2021-04-20 17:47:12.077490,21.79895
2021-04-20 17:47:12.093120,19.63168
2021-04-20 17:47:12.108750,16.97119
2021-04-20 17:47:12.124370,13.91254
2021-04-20 17:47:12.140000,10.65018
2021-04-20 17:47:12.155620,7.393463
2021-04-20 17:47:12.171250,4.253754
2021-04-20 17:47:12.186880,1.17453
2021-04-20 17:47:12.202500,-2.036011
2021-04-20 17:47:12.218130,-5.573761
2021-04-20 17:47:12.233750,-9.396301
2021-04-20 17:47:12.249380,-13.0798
2021-04-20 17:47:12.265000,-15.82376
2021-04-20 17:47:12.280630,-16.67435
2021-04-20 17:47:12.296260,-14.82291
2021-04-20 17:47:12.311880,-9.96701
2021-04-20 17:47:12.327510,-2.487396
2021-04-20 17:47:12.343130,6.641876
2021-04-20 17:47:12.358760,16.1293
2021-04-20 17:47:12.374380,24.755
2021-04-20 17:47:12.390010,31.71225
2021-04-20 17:47:12.405640,36.70718
2021-04-20 17:47:12.421260,39.84613
2021-04-20 17:47:12.436890,41.43146
2021-04-20 17:47:12.452510,41.71796
2021-04-20 17:47:12.468140,40.8663
2021-04-20 17:47:12.483760,39.04944
2021-04-20 17:47:12.499390,36.56201
2021-04-20 17:47:12.515020,33.8858
2021-04-20 17:47:12.530640,31.60428
2021-04-20 17:47:12.546270,30.13449
2021-04-20 17:47:12.561890,29.56244
2021-04-20 17:47:12.577520,29.58365
2021-04-20 17:47:12.593140,29.66666
2021-04-20 17:47:12.608770,29.27765
2021-04-20 17:47:12.624400,28.09528
2021-04-20 17:47:12.640020,26.06363
2021-04-20 17:47:12.655650,23.2666
2021-04-20 17:47:12.671270,19.8407
2021-04-20 17:47:12.686900,15.8616
2021-04-20 17:47:12.702520,11.38776
2021-04-20 17:47:12.718150,6.565002
2021-04-20 17:47:12.733780,1.674988
2021-04-20 17:47:12.749400,-2.874176
2021-04-20 17:47:12.765030,-6.749146
2021-04-20 17:47:12.780650,-9.795441
2021-04-20 17:47:12.796280,-12.19965
2021-04-20 17:47:12.811900,-14.36264
2021-04-20 17:47:12.827530,-16.75092
2021-04-20 17:47:12.843160,-19.65494
2021-04-20 17:47:12.858780,-23.01132
2021-04-20 17:47:12.874410,-26.3446
2021-04-20 17:47:12.890030,-28.89072
2021-04-20 17:47:12.905660,-29.80499
2021-04-20 17:47:12.921280,-28.43787
2021-04-20 17:47:12.936910,-24.5386
2021-04-20 17:47:12.952540,-18.3403
2021-04-20 17:47:12.968160,-10.50204
2021-04-20 17:47:12.983790,-1.93045
2021-04-20 17:47:12.999410,6.41571
2021-04-20 17:47:13.015040,13.75491
2021-04-20 17:47:13.030660,19.60132
2021-04-20 17:47:13.046290,23.78976
2021-04-20 17:47:13.061920,26.47195
2021-04-20 17:47:13.077540,27.93198
2021-04-20 17:47:13.093170,28.47275
2021-04-20 17:47:13.108790,28.32224
2021-04-20 17:47:13.124420,27.59015
2021-04-20 17:47:13.140040,26.24973
2021-04-20 17:47:13.155670,24.16187
2021-04-20 17:47:13.171300,21.15317
2021-04-20 17:47:13.186920,17.01047
2021-04-20 17:47:13.202550,11.58228
2021-04-20 17:47:13.218170,4.843964
2021-04-20 17:47:13.233800,-3.065521
2021-04-20 17:47:13.249420,-11.81445
2021-04-20 17:47:13.265050,-20.96579
2021-04-20 17:47:13.280680,-30.052
2021-04-20 17:47:13.296300,-38.73727
2021-04-20 17:47:13.311930,-46.901
2021-04-20 17:47:13.327550,-54.55969
2021-04-20 17:47:13.343180,-61.82092
2021-04-20 17:47:13.358800,-68.70056
2021-04-20 17:47:13.374430,-75.05939
2021-04-20 17:47:13.390060,-80.58743
2021-04-20 17:47:13.405680,-84.93127
2021-04-20 17:47:13.421310,-87.81549
2021-04-20 17:47:13.436930,-89.10583
2021-04-20 17:47:13.452560,-88.85205
2021-04-20 17:47:13.468180,-87.24045
2021-04-20 17:47:13.483810,-84.53345
2021-04-20 17:47:13.499440,-81.03137
2021-04-20 17:47:13.515060,-76.92001
2021-04-20 17:47:13.530690,-72.25497
2021-04-20 17:47:13.546310,-66.83163
2021-04-20 17:47:13.561940,-60.27335
2021-04-20 17:47:13.577560,-52.10629
2021-04-20 17:47:13.593190,-42.00327
2021-04-20 17:47:13.608820,-29.97186
2021-04-20 17:47:13.624440,-16.4295
2021-04-20 17:47:13.640070,-2.116486
2021-04-20 17:47:13.655690,12.08029
2021-04-20 17:47:13.671320,25.36346
2021-04-20 17:47:13.686940,37.15833
2021-04-20 17:47:13.702570,47.11884
2021-04-20 17:47:13.718200,55.07443
2021-04-20 17:47:13.733820,60.92084
2021-04-20 17:47:13.749450,64.59015
2021-04-20 17:47:13.765070,66.09863
2021-04-20 17:47:13.780700,65.59024
2021-04-20 17:47:13.796320,63.34003
2021-04-20 17:47:13.811950,59.7608
2021-04-20 17:47:13.827580,55.37268
2021-04-20 17:47:13.843200,50.71692
2021-04-20 17:47:13.858830,46.31204
2021-04-20 17:47:13.874450,42.54019
2021-04-20 17:47:13.890080,39.591
2021-04-20 17:47:13.905700,37.38556
2021-04-20 17:47:13.921330,35.59024
2021-04-20 17:47:13.936960,33.73407
2021-04-20 17:47:13.952580,31.35623
2021-04-20 17:47:13.968210,28.15543
2021-04-20 17:47:13.983830,24.13367
2021-04-20 17:47:13.999460,19.56812
2021-04-20 17:47:14.015080,14.90518
2021-04-20 17:47:14.030710,10.54199
2021-04-20 17:47:14.046340,6.681015
2021-04-20 17:47:14.061960,3.20018
2021-04-20 17:47:14.077590,-0.248291
2021-04-20 17:47:14.093210,-4.162552
2021-04-20 17:47:14.108840,-8.983688
2021-04-20 17:47:14.124460,-15.01697
2021-04-20 17:47:14.140090,-22.4044
2021-04-20 17:47:14.155720,-31.04413
2021-04-20 17:47:14.171340,-40.54277
2021-04-20 17:47:14.186970,-50.09277
2021-04-20 17:47:14.202590,-58.52611
2021-04-20 17:47:14.218220,-64.44519
2021-04-20 17:47:14.233840,-66.56662
2021-04-20 17:47:14.249470,-64.21735
2021-04-20 17:47:14.265100,-57.55104
2021-04-20 17:47:14.280720,-47.66518
2021-04-20 17:47:14.296350,-36.22105
2021-04-20 17:47:14.311970,-25.00812
2021-04-20 17:47:14.327600,-15.38596
2021-04-20 17:47:14.343220,-8.033279
2021-04-20 17:47:14.358850,-2.911621
2021-04-20 17:47:14.374480,0.4866638
2021-04-20 17:47:14.390100,2.815536
2021-04-20 17:47:14.405730,4.586731
2021-04-20 17:47:14.421350,6.037186
2021-04-20 17:47:14.436980,7.219238
2021-04-20 17:47:14.452610,8.128494
2021-04-20 17:47:14.468230,8.858322
2021-04-20 17:47:14.483860,9.60643
2021-04-20 17:47:14.499480,10.61455
2021-04-20 17:47:14.515110,11.94675
2021-04-20 17:47:14.530730,13.41966
2021-04-20 17:47:14.546360,14.64482
2021-04-20 17:47:14.561990,15.18559
2021-04-20 17:47:14.577610,14.83754
2021-04-20 17:47:14.593240,13.68813
2021-04-20 17:47:14.608860,12.11745
2021-04-20 17:47:14.624490,10.58374
2021-04-20 17:47:14.640110,9.389908
2021-04-20 17:47:14.655740,8.578613
2021-04-20 17:47:14.671370,7.912781
2021-04-20 17:47:14.686990,7.061905
2021-04-20 17:47:14.702620,5.737228
2021-04-20 17:47:14.718240,3.860626
2021-04-20 17:47:14.733870,1.544968
2021-04-20 17:47:14.749490,-0.969101
2021-04-20 17:47:14.765120,-3.452271
2021-04-20 17:47:14.780750,-5.838669
2021-04-20 17:47:14.796370,-8.253738
2021-04-20 17:47:14.812000,-10.96397
2021-04-20 17:47:14.827620,-14.25639
2021-04-20 17:47:14.843250,-18.30069
2021-04-20 17:47:14.858870,-23.11472
2021-04-20 17:47:14.874500,-28.52693
2021-04-20 17:47:14.890130,-34.21196
2021-04-20 17:47:14.905750,-39.64046
2021-04-20 17:47:14.921380,-44.05984
2021-04-20 17:47:14.937000,-46.51841
2021-04-20 17:47:14.952630,-46.07044
2021-04-20 17:47:14.968250,-42.07571
2021-04-20 17:47:14.983880,-34.53086
2021-04-20 17:47:14.999510,-24.25739
2021-04-20 17:47:15.015130,-12.69614
2021-04-20 17:47:15.030760,-1.50174
2021-04-20 17:47:15.046380,8.010841
2021-04-20 17:47:15.062010,15.25156
2021-04-20 17:47:15.077630,20.39371
2021-04-20 17:47:15.093260,24.08678
2021-04-20 17:47:15.108890,26.99674
2021-04-20 17:47:15.124510,29.51664
2021-04-20 17:47:15.140140,31.63818
2021-04-20 17:47:15.155760,33.1789
2021-04-20 17:47:15.171390,34.02801
2021-04-20 17:47:15.187010,34.29134
2021-04-20 17:47:15.218270,34.29517
2021-04-20 17:47:15.233890,34.44699
2021-04-20 17:47:15.249520,34.56242
2021-04-20 17:47:15.265140,34.32049
2021-04-20 17:47:15.280770,33.44094
2021-04-20 17:47:15.296390,31.89618
2021-04-20 17:47:15.312020,29.92721
2021-04-20 17:47:15.327650,27.93085
2021-04-20 17:47:15.343270,26.29481
2021-04-20 17:47:15.358900,25.20447
2021-04-20 17:47:15.374520,24.57895
2021-04-20 17:47:15.390150,24.10072
2021-04-20 17:47:15.405770,23.3586
2021-04-20 17:47:15.421400,21.99422
2021-04-20 17:47:15.437030,19.82229
2021-04-20 17:47:15.452650,16.90837
2021-04-20 17:47:15.468280,13.51367
2021-04-20 17:47:15.483900,10.05006
2021-04-20 17:47:15.499530,6.924683
2021-04-20 17:47:15.515150,4.450048
2021-04-20 17:47:15.530780,2.761404
2021-04-20 17:47:15.546410,1.782269
2021-04-20 17:47:15.562030,1.257923
2021-04-20 17:47:15.577660,0.7547245
2021-04-20 17:47:15.593280,-0.2331676
2021-04-20 17:47:15.608910,-2.161648
2021-04-20 17:47:15.624530,-5.184294
2021-04-20 17:47:15.640160,-9.006567
2021-04-20 17:47:15.655790,-12.75027
2021-04-20 17:47:15.671410,-15.08232
2021-04-20 17:47:15.687040,-14.6041
2021-04-20 17:47:15.702660,-10.35001
2021-04-20 17:47:15.718290,-2.189072
2021-04-20 17:47:15.733910,8.971176
2021-04-20 17:47:15.749540,21.46688
2021-04-20 17:47:15.765170,33.33734
2021-04-20 17:47:15.780790,42.92016
2021-04-20 17:47:15.796420,49.25864
2021-04-20 17:47:15.812040,52.1864
2021-04-20 17:47:15.827670,52.11646
2021-04-20 17:47:15.843290,49.72554
2021-04-20 17:47:15.858920,45.65669
2021-04-20 17:47:15.874550,40.39926
2021-04-20 17:47:15.890170,34.33435
2021-04-20 17:47:15.905800,27.80569
2021-04-20 17:47:15.921420,21.22612
2021-04-20 17:47:15.937050,15.04022
2021-04-20 17:47:15.952670,9.681337
2021-04-20 17:47:15.968300,5.442286
2021-04-20 17:47:15.983930,2.455244
2021-04-20 17:47:15.999550,0.6221676
2021-04-20 17:47:16.015180,-0.2903576
2021-04-20 17:47:16.030800,-0.5525761
2021-04-20 17:47:16.046430,-0.3771572
2021-04-20 17:47:16.062050,0.1493187
2021-04-20 17:47:16.077680,1.085524
2021-04-20 17:47:16.093310,2.530273
2021-04-20 17:47:16.108930,4.518135
2021-04-20 17:47:16.124560,6.94309
2021-04-20 17:47:16.140180,9.494707
2021-04-20 17:47:16.155810,11.76107
2021-04-20 17:47:16.171430,13.33768
2021-04-20 17:47:16.187060,13.97808
2021-04-20 17:47:16.202690,13.68332
2021-04-20 17:47:16.218310,12.69353
2021-04-20 17:47:16.233940,11.39195
2021-04-20 17:47:16.249560,10.09448
2021-04-20 17:47:16.265190,8.936665
2021-04-20 17:47:16.280810,7.736057
2021-04-20 17:47:16.296440,6.095116
2021-04-20 17:47:16.312070,3.502598
2021-04-20 17:47:16.327690,-0.4472885
2021-04-20 17:47:16.343320,-5.921413
2021-04-20 17:47:16.358940,-12.7286
2021-04-20 17:47:16.374570,-20.38197
2021-04-20 17:47:16.390190,-28.1406
2021-04-20 17:47:16.405820,-35.11687
2021-04-20 17:47:16.421450,-40.39216
2021-04-20 17:47:16.437070,-43.12051
2021-04-20 17:47:16.452700,-42.7322
2021-04-20 17:47:16.468320,-39.10966
2021-04-20 17:47:16.483950,-32.66401
2021-04-20 17:47:16.499570,-24.32711
2021-04-20 17:47:16.515200,-15.33308
2021-04-20 17:47:16.530830,-6.973095
2021-04-20 17:47:16.546450,-0.2673798
2021-04-20 17:47:16.562080,4.183815
2021-04-20 17:47:16.577700,6.279015
2021-04-20 17:47:16.593330,6.176552
2021-04-20 17:47:16.608950,4.111687
2021-04-20 17:47:16.624580,0.1983414
2021-04-20 17:47:16.640210,-5.499325
2021-04-20 17:47:16.655830,-12.78069
2021-04-20 17:47:16.671460,-21.10843
2021-04-20 17:47:16.687080,-29.60229
2021-04-20 17:47:16.702710,-37.33812
2021-04-20 17:47:16.718330,-43.7267
2021-04-20 17:47:16.733960,-48.80866
2021-04-20 17:47:16.749590,-53.20393
2021-04-20 17:47:16.765210,-57.79396
2021-04-20 17:47:16.780840,-63.22004
2021-04-20 17:47:16.796460,-69.58253
2021-04-20 17:47:16.812090,-76.49721
2021-04-20 17:47:16.827710,-83.37245
2021-04-20 17:47:16.843340,-89.78284
2021-04-20 17:47:16.858970,-95.55359
2021-04-20 17:47:16.874590,-100.653
2021-04-20 17:47:16.890220,-104.8995
2021-04-20 17:47:16.905840,-107.8396
2021-04-20 17:47:16.921470,-108.8483
2021-04-20 17:47:16.937090,-107.376
2021-04-20 17:47:16.952720,-103.2433
2021-04-20 17:47:16.968350,-96.69299
2021-04-20 17:47:16.983970,-88.27628
2021-04-20 17:47:16.999600,-78.63656
2021-04-20 17:47:17.015220,-68.3334
2021-04-20 17:47:17.030850,-57.74261
2021-04-20 17:47:17.046480,-47.14384
2021-04-20 17:47:17.062100,-36.8854
2021-04-20 17:47:17.077730,-27.48133
2021-04-20 17:47:17.093350,-19.629
2021-04-20 17:47:17.108980,-14.00356
2021-04-20 17:47:17.124600,-11.06007
2021-04-20 17:47:17.140230,-10.70589
2021-04-20 17:47:17.155860,-12.17812
2021-04-20 17:47:17.171480,-14.06878
2021-04-20 17:47:17.187110,-14.64709
2021-04-20 17:47:17.202730,-12.33568
2021-04-20 17:47:17.218360,-6.217484
2021-04-20 17:47:17.233980,3.676598
2021-04-20 17:47:17.249610,16.32193
2021-04-20 17:47:17.265240,30.02184
2021-04-20 17:47:17.280860,42.8571
2021-04-20 17:47:17.296490,53.19542
2021-04-20 17:47:17.312110,60.05794
2021-04-20 17:47:17.327740,63.20761
2021-04-20 17:47:17.343360,63.06873
2021-04-20 17:47:17.358990,60.45909
2021-04-20 17:47:17.374620,56.37271
2021-04-20 17:47:17.390240,51.77074
2021-04-20 17:47:17.405870,47.49336
2021-04-20 17:47:17.421490,44.20273
2021-04-20 17:47:17.437120,42.34569
2021-04-20 17:47:17.452740,42.08051
2021-04-20 17:47:17.468370,43.27205
2021-04-20 17:47:17.484000,45.44881
2021-04-20 17:47:17.515250,50.2052
2021-04-20 17:47:17.530870,51.56575
2021-04-20 17:47:17.546500,51.77269
2021-04-20 17:47:17.562120,50.82965
2021-04-20 17:47:17.577750,48.9469
2021-04-20 17:47:17.593380,46.37689
2021-04-20 17:47:17.609000,43.31012
2021-04-20 17:47:17.624630,39.81909
2021-04-20 17:47:17.640250,35.93439
2021-04-20 17:47:17.655880,31.7916
2021-04-20 17:47:17.671500,27.70566
2021-04-20 17:47:17.687130,24.1373
2021-04-20 17:47:17.702760,21.52698
2021-04-20 17:47:17.718380,20.06369
2021-04-20 17:47:17.734010,19.53195
2021-04-20 17:47:17.749630,19.37137
2021-04-20 17:47:17.765260,18.9519
2021-04-20 17:47:17.780880,17.85776
2021-04-20 17:47:17.796510,16.077
2021-04-20 17:47:17.812140,13.97739
2021-04-20 17:47:17.827760,12.04572
2021-04-20 17:47:17.843390,10.60275
2021-04-20 17:47:17.859010,9.636383
2021-04-20 17:47:17.874640,8.851318
2021-04-20 17:47:17.890260,7.850006
2021-04-20 17:47:17.905890,6.388916
2021-04-20 17:47:17.921520,4.520813
2021-04-20 17:47:17.937140,2.698547
2021-04-20 17:47:17.952770,1.678558
2021-04-20 17:47:17.968390,2.523438
2021-04-20 17:47:17.984020,6.309601
2021-04-20 17:47:17.999640,13.90601
2021-04-20 17:47:18.015270,25.60461
2021-04-20 17:47:18.030900,40.90628
2021-04-20 17:47:18.046520,58.50464
2021-04-20 17:47:18.062150,76.53561
2021-04-20 17:47:18.077770,93.09485
2021-04-20 17:47:18.093400,106.7622
2021-04-20 17:47:18.109020,116.8861
2021-04-20 17:47:18.124650,123.6115
2021-04-20 17:47:18.140280,127.6204
2021-04-20 17:47:18.155900,129.7643
2021-04-20 17:47:18.171530,130.798
2021-04-20 17:47:18.187150,131.2843
2021-04-20 17:47:18.202780,131.6222
2021-04-20 17:47:18.218400,132.2113
2021-04-20 17:47:18.234030,133.3908
2021-04-20 17:47:18.249660,135.371
2021-04-20 17:47:18.265280,137.9511
2021-04-20 17:47:18.280910,140.3965
2021-04-20 17:47:18.296530,141.4799
2021-04-20 17:47:18.312160,139.7318
2021-04-20 17:47:18.327780,133.9268
2021-04-20 17:47:18.343410,123.4321
2021-04-20 17:47:18.359040,108.4077
2021-04-20 17:47:18.374660,89.77533
2021-04-20 17:47:18.390290,68.94305
2021-04-20 17:47:18.405910,47.47446
2021-04-20 17:47:18.421540,26.77682
2021-04-20 17:47:18.437160,7.920898
2021-04-20 17:47:18.452790,-8.487091
2021-04-20 17:47:18.468420,-22.23404
2021-04-20 17:47:18.484040,-33.41586
2021-04-20 17:47:18.499670,-42.25304
2021-04-20 17:47:18.515290,-48.97073
2021-04-20 17:47:18.530920,-53.77863
2021-04-20 17:47:18.546540,-56.92789
2021-04-20 17:47:18.562170,-58.86311
2021-04-20 17:47:18.577800,-60.24352
2021-04-20 17:47:18.593420,-61.91225
2021-04-20 17:47:18.609050,-64.65474
2021-04-20 17:47:18.624670,-69.02129
2021-04-20 17:47:18.640300,-75.21106
2021-04-20 17:47:18.655920,-83.19734
2021-04-20 17:47:18.671550,-92.81126
2021-04-20 17:47:18.687180,-103.8559
2021-04-20 17:47:18.702800,-116.0285
2021-04-20 17:47:18.718430,-128.7012
2021-04-20 17:47:18.734050,-140.7993
2021-04-20 17:47:18.749680,-150.8874
2021-04-20 17:47:18.765300,-157.5089
2021-04-20 17:47:18.780930,-159.7498
2021-04-20 17:47:18.796560,-157.5851
2021-04-20 17:47:18.812180,-152.055
2021-04-20 17:47:18.827810,-144.9323
2021-04-20 17:47:18.843430,-138.1948
2021-04-20 17:47:18.859060,-133.3866
2021-04-20 17:47:18.874680,-131.2233
2021-04-20 17:47:18.890310,-131.4871
2021-04-20 17:47:18.905940,-133.2527
2021-04-20 17:47:18.921560,-135.2859
2021-04-20 17:47:18.937190,-136.4185
2021-04-20 17:47:18.952810,-135.7577
2021-04-20 17:47:18.968440,-132.7997
2021-04-20 17:47:18.984060,-127.3075
2021-04-20 17:47:18.999690,-119.2457
2021-04-20 17:47:19.015320,-108.6729
2021-04-20 17:47:19.030940,-95.69232
2021-04-20 17:47:19.046570,-80.47485
2021-04-20 17:47:19.062190,-63.27734
2021-04-20 17:47:19.077820,-44.43059
2021-04-20 17:47:19.093440,-24.35217
2021-04-20 17:47:19.109070,-3.537735
2021-04-20 17:47:19.124700,17.4323
2021-04-20 17:47:19.140320,37.87599
2021-04-20 17:47:19.155950,56.98032
2021-04-20 17:47:19.171570,73.80185
2021-04-20 17:47:19.187200,87.41103
2021-04-20 17:47:19.202820,97.03996
2021-04-20 17:47:19.218450,102.3353
2021-04-20 17:47:19.234080,103.459
2021-04-20 17:47:19.249700,101.0954
2021-04-20 17:47:19.265330,96.33397
2021-04-20 17:47:19.280950,90.37863
2021-04-20 17:47:19.296580,84.30209
2021-04-20 17:47:19.312210,78.74931
2021-04-20 17:47:19.327830,73.86826
2021-04-20 17:47:19.343460,69.27101
2021-04-20 17:47:19.359080,64.24257
2021-04-20 17:47:19.374710,57.90968
2021-04-20 17:47:19.390330,49.5752
2021-04-20 17:47:19.405960,38.99139
2021-04-20 17:47:19.421590,26.61081
2021-04-20 17:47:19.437210,13.60344
2021-04-20 17:47:19.452840,1.746643
2021-04-20 17:47:19.468460,-7.008377
2021-04-20 17:47:19.484090,-11.14607
2021-04-20 17:47:19.499710,-10.0423
2021-04-20 17:47:19.515340,-4.265198
2021-04-20 17:47:19.530970,4.608505
2021-04-20 17:47:19.546590,14.49417
2021-04-20 17:47:19.562220,23.47517
2021-04-20 17:47:19.577840,30.33174
2021-04-20 17:47:19.593470,34.68338
2021-04-20 17:47:19.609090,36.81834
2021-04-20 17:47:19.624720,37.31274
2021-04-20 17:47:19.640350,36.69643
2021-04-20 17:47:19.655970,35.37682
2021-04-20 17:47:19.671600,33.67632
2021-04-20 17:47:19.687220,31.93851
2021-04-20 17:47:19.702850,30.54388
2021-04-20 17:47:19.718470,29.82263
2021-04-20 17:47:19.734100,29.86884
2021-04-20 17:47:19.749730,30.474
2021-04-20 17:47:19.765350,31.18555
2021-04-20 17:47:19.796600,30.89893
2021-04-20 17:47:19.812230,29.33722
2021-04-20 17:47:19.827850,26.8765
2021-04-20 17:47:19.843480,23.75656
2021-04-20 17:47:19.859110,20.21674
2021-04-20 17:47:19.874730,16.37033
2021-04-20 17:47:19.890360,12.1864
2021-04-20 17:47:19.905980,7.553345
2021-04-20 17:47:19.921610,2.373108
2021-04-20 17:47:19.937230,-3.280823
2021-04-20 17:47:19.952860,-9.099823
2021-04-20 17:47:19.968490,-14.62238
2021-04-20 17:47:19.984110,-19.4249
2021-04-20 17:47:19.999740,-23.33356
2021-04-20 17:47:20.015360,-26.47186
2021-04-20 17:47:20.030990,-29.18625
2021-04-20 17:47:20.046610,-31.84207
2021-04-20 17:47:20.062240,-34.59406
2021-04-20 17:47:20.077870,-37.29211
2021-04-20 17:47:20.093490,-39.58249
2021-04-20 17:47:20.109120,-41.08707
2021-04-20 17:47:20.124740,-41.55096
2021-04-20 17:47:20.140370,-40.87161
2021-04-20 17:47:20.155990,-39.00339
2021-04-20 17:47:20.171620,-35.84235
2021-04-20 17:47:20.187250,-31.19058
2021-04-20 17:47:20.202870,-24.9696
2021-04-20 17:47:20.218500,-17.3584
2021-04-20 17:47:20.234120,-8.965363
2021-04-20 17:47:20.249750,-0.7598572
2021-04-20 17:47:20.265370,6.222595
2021-04-20 17:47:20.281000,11.18524
2021-04-20 17:47:20.296630,13.77469
2021-04-20 17:47:20.312250,14.08377
2021-04-20 17:47:20.327880,12.51688
2021-04-20 17:47:20.343500,9.568848
2021-04-20 17:47:20.359130,5.728821
2021-04-20 17:47:20.374750,1.427032
2021-04-20 17:47:20.390380,-2.921692
2021-04-20 17:47:20.406010,-6.892853
2021-04-20 17:47:20.421630,-10.06268
2021-04-20 17:47:20.437260,-12.06473
2021-04-20 17:47:20.452880,-12.67422
2021-04-20 17:47:20.468510,-11.81158
2021-04-20 17:47:20.484130,-9.626038
2021-04-20 17:47:20.499760,-6.442841
2021-04-20 17:47:20.515390,-2.804871
2021-04-20 17:47:20.531010,0.7051392
2021-04-20 17:47:20.546640,3.57547
2021-04-20 17:47:20.562260,5.585052
2021-04-20 17:47:20.577890,6.892059
2021-04-20 17:47:20.593510,7.983948
2021-04-20 17:47:20.609140,9.435364
2021-04-20 17:47:20.624770,11.62659
2021-04-20 17:47:20.640390,14.53851
2021-04-20 17:47:20.656020,17.7561
2021-04-20 17:47:20.671640,20.63266
2021-04-20 17:47:20.687270,22.53714
2021-04-20 17:47:20.702890,22.97427
2021-04-20 17:47:20.718520,21.61182
2021-04-20 17:47:20.734150,18.1835
2021-04-20 17:47:20.749770,12.45184
2021-04-20 17:47:20.765400,4.364838
2021-04-20 17:47:20.781020,-5.736145
2021-04-20 17:47:20.796650,-16.85144
2021-04-20 17:47:20.812270,-27.32483
2021-04-20 17:47:20.827900,-35.16867
2021-04-20 17:47:20.843530,-38.67294
2021-04-20 17:47:20.874780,-30.4837
2021-04-20 17:47:20.890400,-20.65399
2021-04-20 17:47:20.906030,-9.590424
2021-04-20 17:47:20.921650,0.6807251
2021-04-20 17:47:20.937280,8.77417
2021-04-20 17:47:20.952910,14.21085
2021-04-20 17:47:20.968530,17.27478
2021-04-20 17:47:20.984160,18.73843
2021-04-20 17:47:20.999780,19.43567
2021-04-20 17:47:21.015410,20.06149
2021-04-20 17:47:21.031030,21.01175
2021-04-20 17:47:21.046660,22.43945
2021-04-20 17:47:21.062290,24.2933
2021-04-20 17:47:21.077910,26.37421
2021-04-20 17:47:21.093540,28.36734
2021-04-20 17:47:21.109160,29.8844
2021-04-20 17:47:21.124790,30.48792
2021-04-20 17:47:21.140410,29.83807
2021-04-20 17:47:21.156040,27.79913
2021-04-20 17:47:21.171670,24.54181
2021-04-20 17:47:21.187290,20.46878
2021-04-20 17:47:21.202920,16.13376
2021-04-20 17:47:21.218540,11.97733
2021-04-20 17:47:21.234170,8.211029
2021-04-20 17:47:21.249790,4.753845
2021-04-20 17:47:21.265420,1.410095
2021-04-20 17:47:21.281050,-1.950165
2021-04-20 17:47:21.296670,-5.165375
2021-04-20 17:47:21.312300,-7.781036
2021-04-20 17:47:21.327920,-9.223633
2021-04-20 17:47:21.343550,-9.071808
2021-04-20 17:47:21.359170,-7.246277
2021-04-20 17:47:21.374800,-4.016113
2021-04-20 17:47:21.390430,0.08972168
2021-04-20 17:47:21.406050,4.472626
2021-04-20 17:47:21.421680,8.524048
2021-04-20 17:47:21.437300,11.75409
2021-04-20 17:47:21.452930,13.84933
2021-04-20 17:47:21.468550,14.80814
2021-04-20 17:47:21.484180,15.05826
2021-04-20 17:47:21.499810,15.4325
2021-04-20 17:47:21.515430,17.04074
2021-04-20 17:47:21.531060,20.83832
2021-04-20 17:47:21.546680,27.31885
2021-04-20 17:47:21.562310,36.21222
2021-04-20 17:47:21.577930,46.55826
2021-04-20 17:47:21.593560,56.95673
2021-04-20 17:47:21.609190,66.01218
2021-04-20 17:47:21.624810,72.6499
2021-04-20 17:47:21.640440,76.36411
2021-04-20 17:47:21.656060,77.23502
2021-04-20 17:47:21.671690,75.79776
2021-04-20 17:47:21.687310,72.85931
2021-04-20 17:47:21.702940,69.2973
2021-04-20 17:47:21.718570,65.88428
2021-04-20 17:47:21.734190,63.11108
2021-04-20 17:47:21.749820,61.09459
2021-04-20 17:47:21.765440,59.59659
2021-04-20 17:47:21.781070,58.1031
2021-04-20 17:47:21.796690,56.07971
2021-04-20 17:47:21.812320,53.23009
2021-04-20 17:47:21.827950,49.76364
2021-04-20 17:47:21.843570,46.37091
2021-04-20 17:47:21.859200,44.03973
2021-04-20 17:47:21.874820,43.60989
2021-04-20 17:47:21.890450,45.4339
2021-04-20 17:47:21.906080,49.16821
2021-04-20 17:47:21.921700,53.9095
2021-04-20 17:47:21.937330,58.59277
2021-04-20 17:47:21.952950,62.39532
2021-04-20 17:47:21.968580,65.04507
2021-04-20 17:47:21.984200,66.93884
2021-04-20 17:47:21.999830,69.0733
2021-04-20 17:47:22.015460,72.84428
2021-04-20 17:47:22.031080,79.65628
2021-04-20 17:47:22.046710,90.43359
2021-04-20 17:47:22.062330,105.0667
2021-04-20 17:47:22.077960,122.0523
2021-04-20 17:47:22.093580,138.5648
2021-04-20 17:47:22.109210,151.0704
2021-04-20 17:47:22.124840,156.3111
2021-04-20 17:47:22.140460,152.4229
2021-04-20 17:47:22.156090,139.5988
2021-04-20 17:47:22.171710,120.1365
2021-04-20 17:47:22.202960,76.22144
2021-04-20 17:47:22.218590,58.64684
2021-04-20 17:47:22.234220,46.39902
2021-04-20 17:47:22.249840,39.28025
2021-04-20 17:47:22.265470,35.97744
2021-04-20 17:47:22.281090,34.6745
2021-04-20 17:47:22.296720,33.47484
2021-04-20 17:47:22.312340,30.51437
2021-04-20 17:47:22.327970,24.11256
2021-04-20 17:47:22.343600,13.12576
2021-04-20 17:47:22.359220,-2.428787
2021-04-20 17:47:22.374850,-20.83467
2021-04-20 17:47:22.390470,-38.66721
2021-04-20 17:47:22.406100,-51.68759
2021-04-20 17:47:22.421720,-56.36237
2021-04-20 17:47:22.437350,-51.22998
2021-04-20 17:47:22.452980,-37.50693
2021-04-20 17:47:22.468600,-18.56042
2021-04-20 17:47:22.484230,1.265961
2021-04-20 17:47:22.499850,17.90332
2021-04-20 17:47:22.515480,28.27823
2021-04-20 17:47:22.531100,30.51611
2021-04-20 17:47:22.546730,23.86917
2021-04-20 17:47:22.562360,8.802429
2021-04-20 17:47:22.577980,-12.87473
2021-04-20 17:47:22.593610,-37.98691
2021-04-20 17:47:22.609230,-62.65457
2021-04-20 17:47:22.624860,-83.32928
2021-04-20 17:47:22.640480,-98.00201
2021-04-20 17:47:22.656110,-106.7764
2021-04-20 17:47:22.671740,-111.5826
2021-04-20 17:47:22.687360,-115.0576
2021-04-20 17:47:22.702990,-119.3619
2021-04-20 17:47:22.718610,-125.3616
2021-04-20 17:47:22.734240,-132.5463
2021-04-20 17:47:22.749860,-139.5317
2021-04-20 17:47:22.765490,-144.6802
2021-04-20 17:47:22.781120,-146.5593
2021-04-20 17:47:22.796740,-144.1259
2021-04-20 17:47:22.812370,-136.9272
2021-04-20 17:47:22.827990,-125.2657
2021-04-20 17:47:22.843620,-110.3484
2021-04-20 17:47:22.859240,-94.24127
2021-04-20 17:47:22.874870,-79.43365
2021-04-20 17:47:22.890500,-68.10083
2021-04-20 17:47:22.906120,-61.42236
2021-04-20 17:47:22.921750,-59.22687
2021-04-20 17:47:22.937370,-60.20953
2021-04-20 17:47:22.953000,-62.71606
2021-04-20 17:47:22.968620,-65.54468
2021-04-20 17:47:22.984250,-68.46289
2021-04-20 17:47:22.999880,-72.16827
2021-04-20 17:47:23.015500,-77.71069
2021-04-20 17:47:23.031130,-85.74097
2021-04-20 17:47:23.046750,-95.98419
2021-04-20 17:47:23.062380,-107.0698
2021-04-20 17:47:23.078000,-116.9282
2021-04-20 17:47:23.093630,-123.4801
2021-04-20 17:47:23.109260,-125.3363
2021-04-20 17:47:23.124880,-122.2624
2021-04-20 17:47:23.140510,-115.1186
2021-04-20 17:47:23.156130,-105.4168
2021-04-20 17:47:23.171760,-94.69281
2021-04-20 17:47:23.187380,-84.00476
2021-04-20 17:47:23.203010,-73.79993
2021-04-20 17:47:23.218640,-64.04236
2021-04-20 17:47:23.234260,-54.51288
2021-04-20 17:47:23.249890,-44.97131
2021-04-20 17:47:23.265510,-35.16681
2021-04-20 17:47:23.281140,-24.88678
2021-04-20 17:47:23.296760,-14.07813
2021-04-20 17:47:23.312390,-3.072815
2021-04-20 17:47:23.328020,7.172974
2021-04-20 17:47:23.343640,15.13483
2021-04-20 17:47:23.359270,19.22882
2021-04-20 17:47:23.374890,18.59015
2021-04-20 17:47:23.390520,13.84869
2021-04-20 17:47:23.406140,7.19989
2021-04-20 17:47:23.421770,1.883301
2021-04-20 17:47:23.437400,1.030457
2021-04-20 17:47:23.453020,6.531982
2021-04-20 17:47:23.468650,18.37152
2021-04-20 17:47:23.484270,34.73212
2021-04-20 17:47:23.499900,52.80151
2021-04-20 17:47:23.515520,69.75134
2021-04-20 17:47:23.531150,83.54987
2021-04-20 17:47:23.546780,93.23706
2021-04-20 17:47:23.562400,98.78894
2021-04-20 17:47:23.578030,100.8151
2021-04-20 17:47:23.593650,100.2746
2021-04-20 17:47:23.609280,98.33337
2021-04-20 17:47:23.624900,96.23352
2021-04-20 17:47:23.640530,94.98657
2021-04-20 17:47:23.656160,95.02954
2021-04-20 17:47:23.671780,95.97772
2021-04-20 17:47:23.687410,96.6579
2021-04-20 17:47:23.703030,95.65686
2021-04-20 17:47:23.718660,92.01013
2021-04-20 17:47:23.734280,85.73267
2021-04-20 17:47:23.749910,77.75256
2021-04-20 17:47:23.765540,69.51117
2021-04-20 17:47:23.781160,62.24078
2021-04-20 17:47:23.796790,56.62396
2021-04-20 17:47:23.812410,52.72345
2021-04-20 17:47:23.828040,50.30054
2021-04-20 17:47:23.843660,49.01959
2021-04-20 17:47:23.859290,48.28766
2021-04-20 17:47:23.874920,47.0329
2021-04-20 17:47:23.890540,43.65161
2021-04-20 17:47:23.906170,36.39648
2021-04-20 17:47:23.921790,24.13831
2021-04-20 17:47:23.937420,7.022095
2021-04-20 17:47:23.953040,-13.3158
2021-04-20 17:47:23.968670,-34.29407
2021-04-20 17:47:23.984300,-53.3064
2021-04-20 17:47:23.999920,-68.58044
2021-04-20 17:47:24.015550,-79.4375
2021-04-20 17:47:24.031170,-85.98547
2021-04-20 17:47:24.046800,-88.41919
2021-04-20 17:47:24.062420,-86.52393
2021-04-20 17:47:24.078050,-79.59387
2021-04-20 17:47:24.093680,-66.92798
2021-04-20 17:47:24.109300,-48.50745
2021-04-20 17:47:24.124930,-25.43323
2021-04-20 17:47:24.140550,0.07836914
2021-04-20 17:47:24.156180,25.26208
2021-04-20 17:47:24.171810,47.60474
2021-04-20 17:47:24.187430,65.50964
2021-04-20 17:47:24.203060,78.54309
2021-04-20 17:47:24.218680,87.15466
2021-04-20 17:47:24.234310,92.24988
2021-04-20 17:47:24.249930,94.71814
2021-04-20 17:47:24.265560,95.23999
2021-04-20 17:47:24.281190,94.29211
2021-04-20 17:47:24.296810,92.30139
2021-04-20 17:47:24.312440,89.54016
2021-04-20 17:47:24.328060,86.00488
2021-04-20 17:47:24.343690,81.22131
2021-04-20 17:47:24.374940,64.22778
2021-04-20 17:47:24.390570,50.27148
2021-04-20 17:47:24.406190,32.36804
2021-04-20 17:47:24.421820,11.20862
2021-04-20 17:47:24.437440,-12.04761
2021-04-20 17:47:24.453070,-36.13049
2021-04-20 17:47:24.468690,-60.03174
2021-04-20 17:47:24.484320,-83.17981
2021-04-20 17:47:24.499950,-105.4518
2021-04-20 17:47:24.515570,-126.9519
2021-04-20 17:47:24.531200,-147.7947
2021-04-20 17:47:24.546820,-167.8818
2021-04-20 17:47:24.562450,-186.7367
2021-04-20 17:47:24.578070,-203.509
2021-04-20 17:47:24.593700,-216.9707
2021-04-20 17:47:24.609330,-225.6716
2021-04-20 17:47:24.624950,-228.2506
2021-04-20 17:47:24.640580,-223.745
2021-04-20 17:47:24.656200,-211.8989
2021-04-20 17:47:24.671830,-193.3533
2021-04-20 17:47:24.687450,-169.5632
2021-04-20 17:47:24.703080,-142.4519
2021-04-20 17:47:24.718710,-114.0105
2021-04-20 17:47:24.734330,-86.0188
2021-04-20 17:47:24.749960,-59.84875
2021-04-20 17:47:24.765580,-36.54395
2021-04-20 17:47:24.781210,-16.91174
2021-04-20 17:47:24.796830,-1.5354
2021-04-20 17:47:24.812460,9.41272
2021-04-20 17:47:24.828090,16.30676
2021-04-20 17:47:24.843710,20.25842
2021-04-20 17:47:24.859340,22.93115
2021-04-20 17:47:24.874960,26.16516
2021-04-20 17:47:24.890590,31.5426
2021-04-20 17:47:24.906210,39.91553
2021-04-20 17:47:24.921840,51.21777
2021-04-20 17:47:24.937470,64.40186
2021-04-20 17:47:24.953090,77.62561
2021-04-20 17:47:24.968720,88.56384
2021-04-20 17:47:24.984340,94.88696
2021-04-20 17:47:24.999970,94.77979
2021-04-20 17:47:25.015590,87.4187
2021-04-20 17:47:25.031220,73.24255
2021-04-20 17:47:25.046850,53.95544
2021-04-20 17:47:25.062470,32.17419
2021-04-20 17:47:25.078100,10.79834
2021-04-20 17:47:25.093720,-7.541382
2021-04-20 17:47:25.109350,-21.0647
2021-04-20 17:47:25.124970,-29.10181
2021-04-20 17:47:25.140600,-32.21216
2021-04-20 17:47:25.156230,-31.98987
2021-04-20 17:47:25.171850,-30.57007
2021-04-20 17:47:25.187480,-29.91858
2021-04-20 17:47:25.203100,-31.25732
2021-04-20 17:47:25.218730,-34.65466
2021-04-20 17:47:25.234350,-39.15613
2021-04-20 17:47:25.249980,-43.27954
2021-04-20 17:47:25.265610,-45.73389
2021-04-20 17:47:25.281230,-45.89429
2021-04-20 17:47:25.296860,-44.17932
2021-04-20 17:47:25.312480,-42.07214
2021-04-20 17:47:25.328110,-41.97437
2021-04-20 17:47:25.343730,-46.81213
2021-04-20 17:47:25.359360,-59.40881
2021-04-20 17:47:25.374990,-81.6532
2021-04-20 17:47:25.390610,-113.5458
2021-04-20 17:47:25.406240,-152.6418
2021-04-20 17:47:25.421860,-194.2247
2021-04-20 17:47:25.437490,-232.3229
2021-04-20 17:47:25.453110,-261.3406
2021-04-20 17:47:25.468740,-277.5222
2021-04-20 17:47:25.484370,-279.7291
2021-04-20 17:47:25.499990,-269.4615
2021-04-20 17:47:25.515620,-250.0443
2021-04-20 17:47:25.531240,-225.7209
2021-04-20 17:47:25.546870,-200.7516
2021-04-20 17:47:25.562490,-178.7712
2021-04-20 17:47:25.578120,-162.3042
2021-04-20 17:47:25.593750,-152.4095
2021-04-20 17:47:25.609370,-148.5453
2021-04-20 17:47:25.625000,-148.8036
2021-04-20 17:47:25.640620,-150.4873
2021-04-20 17:47:25.656250,-151.0078
2021-04-20 17:47:25.671870,-148.6519
2021-04-20 17:47:25.687500,-142.9559
2021-04-20 17:47:25.703130,-134.7092
2021-04-20 17:47:25.718750,-125.3743
2021-04-20 17:47:25.734380,-116.5416
2021-04-20 17:47:25.750000,-109.4209
2021-04-20 17:47:25.765630,-104.6636
2021-04-20 17:47:25.781250,-102.303
2021-04-20 17:47:25.796880,-101.7446
2021-04-20 17:47:25.812510,-101.969
2021-04-20 17:47:25.828130,-101.6296
2021-04-20 17:47:25.843760,-99.30994
2021-04-20 17:47:25.859380,-93.83423
2021-04-20 17:47:25.875010,-84.53394
2021-04-20 17:47:25.890630,-71.24097
2021-04-20 17:47:25.906260,-54.19043
2021-04-20 17:47:25.921890,-33.81543
2021-04-20 17:47:25.937510,-10.69604
2021-04-20 17:47:25.953140,14.34845
2021-04-20 17:47:25.968760,40.16748
2021-04-20 17:47:25.984390,65.30841
2021-04-20 17:47:26.000010,88.15222
2021-04-20 17:47:26.015640,107.3009
2021-04-20 17:47:26.031270,121.775
2021-04-20 17:47:26.046890,131.2614
2021-04-20 17:47:26.062520,135.941
2021-04-20 17:47:26.078140,136.4025
2021-04-20 17:47:26.093770,133.3094
2021-04-20 17:47:26.109390,127.3387
2021-04-20 17:47:26.125020,118.9851
2021-04-20 17:47:26.140650,108.6713
2021-04-20 17:47:26.156270,96.75446
2021-04-20 17:47:26.171900,83.60608
2021-04-20 17:47:26.187520,69.77502
2021-04-20 17:47:26.203150,55.98511
2021-04-20 17:47:26.218770,43.14398
2021-04-20 17:47:26.234400,32.09393
2021-04-20 17:47:26.250030,23.367
2021-04-20 17:47:26.265650,16.91724
2021-04-20 17:47:26.281280,12.1214
2021-04-20 17:47:26.296900,8.097046
2021-04-20 17:47:26.312530,3.974243
2021-04-20 17:47:26.328160,-0.814209
2021-04-20 17:47:26.343780,-6.516144
2021-04-20 17:47:26.359410,-13.18924
2021-04-20 17:47:26.375030,-21.09567
2021-04-20 17:47:26.390660,-30.78052
2021-04-20 17:47:26.406280,-42.93961
2021-04-20 17:47:26.421910,-57.86026
2021-04-20 17:47:26.437540,-74.78775
2021-04-20 17:47:26.453160,-91.69742
2021-04-20 17:47:26.468790,-105.5573
2021-04-20 17:47:26.484410,-113.2393
2021-04-20 17:47:26.500040,-112.5583
2021-04-20 17:47:26.515660,-102.9389
2021-04-20 17:47:26.531290,-85.47734
2021-04-20 17:47:26.546920,-62.36005
2021-04-20 17:47:26.562540,-36.19608
2021-04-20 17:47:26.578170,-9.314102
2021-04-20 17:47:26.593790,16.28055
2021-04-20 17:47:26.609420,38.99919
2021-04-20 17:47:26.625040,57.49068
2021-04-20 17:47:26.640670,70.80646
2021-04-20 17:47:26.656300,78.58491
2021-04-20 17:47:26.671920,81.36504
2021-04-20 17:47:26.687550,80.5801
2021-04-20 17:47:26.703170,78.22868
2021-04-20 17:47:26.718800,76.23513
2021-04-20 17:47:26.734420,75.85675
2021-04-20 17:47:26.750050,77.40672
2021-04-20 17:47:26.765680,80.35599
2021-04-20 17:47:26.781300,83.80931
2021-04-20 17:47:26.796930,86.95595
2021-04-20 17:47:26.812550,89.47581
2021-04-20 17:47:26.828180,91.51419
2021-04-20 17:47:26.843800,93.42657
2021-04-20 17:47:26.859430,95.50552
2021-04-20 17:47:26.875060,97.7774
2021-04-20 17:47:26.890680,100.0811
2021-04-20 17:47:26.906310,102.2766
2021-04-20 17:47:26.921930,104.4942
2021-04-20 17:47:26.937560,107.0547
2021-04-20 17:47:26.953180,110.1594
2021-04-20 17:47:26.968810,113.4482
2021-04-20 17:47:26.984440,115.7275
2021-04-20 17:47:27.000060,115.0262
2021-04-20 17:47:27.015690,109.192
2021-04-20 17:47:27.031310,96.66486
2021-04-20 17:47:27.046940,77.28156
2021-04-20 17:47:27.062560,52.66968
2021-04-20 17:47:27.078190,26.17456
2021-04-20 17:47:27.093820,1.967163
2021-04-20 17:47:27.109440,-16.0932
2021-04-20 17:47:27.125070,-25.47131
2021-04-20 17:47:27.140690,-25.51685
2021-04-20 17:47:27.156320,-17.30908
2021-04-20 17:47:27.171940,-3.013977
2021-04-20 17:47:27.187570,14.9043
2021-04-20 17:47:27.203200,34.24231
2021-04-20 17:47:27.218820,53.29309
2021-04-20 17:47:27.234450,70.72443
2021-04-20 17:47:27.250070,85.44763
2021-04-20 17:47:27.265700,96.57642
2021-04-20 17:47:27.281320,103.5043
2021-04-20 17:47:27.296950,106.1358
2021-04-20 17:47:27.312580,104.9279
2021-04-20 17:47:27.328200,100.8601
2021-04-20 17:47:27.343830,95.18372
2021-04-20 17:47:27.359450,89.09174
2021-04-20 17:47:27.375080,83.49512
2021-04-20 17:47:27.390700,78.83636
2021-04-20 17:47:27.406330,75.16681
2021-04-20 17:47:27.421960,72.17798
2021-04-20 17:47:27.437580,69.50421
2021-04-20 17:47:27.453210,66.84259
2021-04-20 17:47:27.468830,64.12372
2021-04-20 17:47:27.484460,61.43896
2021-04-20 17:47:27.500080,58.87964
2021-04-20 17:47:27.515710,56.2677
2021-04-20 17:47:27.531340,53.10425
2021-04-20 17:47:27.546960,48.6618
2021-04-20 17:47:27.562590,42.2962
2021-04-20 17:47:27.578210,33.83154
2021-04-20 17:47:27.593840,23.66638
2021-04-20 17:47:27.609460,12.71478
2021-04-20 17:47:27.625090,2.051636
2021-04-20 17:47:27.640720,-7.515015
2021-04-20 17:47:27.656340,-15.71265
2021-04-20 17:47:27.671970,-22.8623
2021-04-20 17:47:27.687590,-29.70587
2021-04-20 17:47:27.703220,-37.17297
2021-04-20 17:47:27.718840,-46.09668
2021-04-20 17:47:27.734470,-56.99646
2021-04-20 17:47:27.750100,-69.82983
2021-04-20 17:47:27.765720,-83.87842
2021-04-20 17:47:27.781350,-97.71637
2021-04-20 17:47:27.796970,-109.3876
2021-04-20 17:47:27.812600,-116.7908
2021-04-20 17:47:27.828220,-118.1833
2021-04-20 17:47:27.843850,-112.5188
2021-04-20 17:47:27.859480,-99.63159
2021-04-20 17:47:27.875100,-80.19666
2021-04-20 17:47:27.906350,-27.93469
2021-04-20 17:47:27.921980,0.4693604
2021-04-20 17:47:27.937600,27.01526
2021-04-20 17:47:27.953230,49.32861
2021-04-20 17:47:27.968860,65.80225
2021-04-20 17:47:27.984480,75.91138
2021-04-20 17:47:28.000110,80.40186
2021-04-20 17:47:28.015730,81.052
2021-04-20 17:47:28.031360,80.16138
2021-04-20 17:47:28.046980,79.93896
2021-04-20 17:47:28.062610,82.01575
2021-04-20 17:47:28.078240,87.15149
2021-04-20 17:47:28.093860,95.21411
2021-04-20 17:47:28.109490,105.3478
2021-04-20 17:47:28.125110,116.246
2021-04-20 17:47:28.140740,126.4778
2021-04-20 17:47:28.156360,134.8049
2021-04-20 17:47:28.171990,140.4661
2021-04-20 17:47:28.187620,143.2683
2021-04-20 17:47:28.203240,143.5175
2021-04-20 17:47:28.218870,141.755
2021-04-20 17:47:28.234490,138.4625
2021-04-20 17:47:28.250120,133.9332
2021-04-20 17:47:28.265740,128.2656
2021-04-20 17:47:28.281370,121.5135
2021-04-20 17:47:28.297000,113.8531
2021-04-20 17:47:28.312620,105.611
2021-04-20 17:47:28.328250,97.14661
2021-04-20 17:47:28.343870,88.69824
2021-04-20 17:47:28.359500,80.29028
2021-04-20 17:47:28.375120,71.6853
2021-04-20 17:47:28.390750,62.53821
2021-04-20 17:47:28.406380,52.48157
2021-04-20 17:47:28.422000,41.20959
2021-04-20 17:47:28.437630,28.60522
2021-04-20 17:47:28.453250,14.86731
2021-04-20 17:47:28.468880,0.7474365
2021-04-20 17:47:28.484500,-12.37048
2021-04-20 17:47:28.500130,-22.6012
2021-04-20 17:47:28.515760,-28.05396
2021-04-20 17:47:28.531380,-27.49109
2021-04-20 17:47:28.547010,-20.8634
2021-04-20 17:47:28.562630,-9.403687
2021-04-20 17:47:28.578260,4.838867
2021-04-20 17:47:28.593880,19.68164
2021-04-20 17:47:28.609510,33.51147
2021-04-20 17:47:28.625140,45.50793
2021-04-20 17:47:28.640760,55.52258
2021-04-20 17:47:28.656390,63.61841
2021-04-20 17:47:28.672010,69.83508
2021-04-20 17:47:28.687640,74.07153
2021-04-20 17:47:28.703260,76.32556
2021-04-20 17:47:28.718890,76.91248
2021-04-20 17:47:28.734520,76.51099
2021-04-20 17:47:28.750140,75.82617
2021-04-20 17:47:28.765770,75.11096
2021-04-20 17:47:28.781390,73.77148
2021-04-20 17:47:28.797020,70.50244
2021-04-20 17:47:28.812640,63.96265
2021-04-20 17:47:28.828270,53.64465
2021-04-20 17:47:28.843900,40.47546
2021-04-20 17:47:28.859520,26.76709
2021-04-20 17:47:28.875150,15.29272
2021-04-20 17:47:28.890770,8.06958
2021-04-20 17:47:28.906400,5.371887
2021-04-20 17:47:28.922020,5.630676
2021-04-20 17:47:28.937650,6.039429
2021-04-20 17:47:28.953280,3.662231
2021-04-20 17:47:28.968900,-3.714233
2021-04-20 17:47:29.000150,-36.97357
2021-04-20 17:47:29.015780,-62.51398
2021-04-20 17:47:29.031410,-92.70795
2021-04-20 17:47:29.047030,-125.7621
2021-04-20 17:47:29.062660,-159.2048
2021-04-20 17:47:29.078280,-190.1536
2021-04-20 17:47:29.093910,-215.9545
2021-04-20 17:47:29.109530,-234.8538
2021-04-20 17:47:29.125160,-246.3621
2021-04-20 17:47:29.140790,-251.1102
2021-04-20 17:47:29.156410,-250.255
2021-04-20 17:47:29.172040,-244.724
2021-04-20 17:47:29.187660,-234.7479
2021-04-20 17:47:29.203290,-219.83
2021-04-20 17:47:29.218910,-199.1832
2021-04-20 17:47:29.234540,-172.326
2021-04-20 17:47:29.250170,-139.5453
2021-04-20 17:47:29.265790,-102.0593
2021-04-20 17:47:29.281420,-61.86603
2021-04-20 17:47:29.297040,-21.30243
2021-04-20 17:47:29.312670,17.40588
2021-04-20 17:47:29.328290,52.41766
2021-04-20 17:47:29.343920,82.37213
2021-04-20 17:47:29.359550,106.3812
2021-04-20 17:47:29.375170,123.9597
2021-04-20 17:47:29.390800,135.1204
2021-04-20 17:47:29.406420,140.457
2021-04-20 17:47:29.422050,141.2028
2021-04-20 17:47:29.437670,139.0627
2021-04-20 17:47:29.453300,135.8909
2021-04-20 17:47:29.468930,133.2249
2021-04-20 17:47:29.484550,131.9186
2021-04-20 17:47:29.500180,131.9406
2021-04-20 17:47:29.515800,132.4503
2021-04-20 17:47:29.531430,132.1143
2021-04-20 17:47:29.547050,129.5272
2021-04-20 17:47:29.562680,123.6096
2021-04-20 17:47:29.578310,113.9125
2021-04-20 17:47:29.593930,100.7636
2021-04-20 17:47:29.609560,85.28058
2021-04-20 17:47:29.625180,69.27173
2021-04-20 17:47:29.640810,54.86182
2021-04-20 17:47:29.656430,44.01953
2021-04-20 17:47:29.672060,37.99255
2021-04-20 17:47:29.687690,36.94025
2021-04-20 17:47:29.703310,39.88739
2021-04-20 17:47:29.718940,45.1131
2021-04-20 17:47:29.734560,50.75781
2021-04-20 17:47:29.750190,55.39008
2021-04-20 17:47:29.765810,58.24182
2021-04-20 17:47:29.781440,59.00079
2021-04-20 17:47:29.797070,57.44098
2021-04-20 17:47:29.812690,53.17914
2021-04-20 17:47:29.828320,45.67841
2021-04-20 17:47:29.843940,34.76538
2021-04-20 17:47:29.859570,21.04108
2021-04-20 17:47:29.875190,6.156372
2021-04-20 17:47:29.890820,-7.446228
2021-04-20 17:47:29.906450,-17.16449
2021-04-20 17:47:29.922070,-20.98877
2021-04-20 17:47:29.937700,-18.09509
2021-04-20 17:47:29.953320,-9.053528
2021-04-20 17:47:29.968950,4.329834
2021-04-20 17:47:29.984570,19.36908
2021-04-20 17:47:30.000200,32.98364
2021-04-20 17:47:30.015830,42.24158
2021-04-20 17:47:30.031450,44.8739
2021-04-20 17:47:30.047080,39.69012
2021-04-20 17:47:30.062700,26.8371
2021-04-20 17:47:30.078330,7.791382
2021-04-20 17:47:30.093950,-15.03802
2021-04-20 17:47:30.109580,-38.80676
2021-04-20 17:47:30.125210,-60.80109
2021-04-20 17:47:30.140830,-78.92188
2021-04-20 17:47:30.156460,-91.90027
2021-04-20 17:47:30.172080,-99.42285
2021-04-20 17:47:30.187710,-102.0386
2021-04-20 17:47:30.203330,-101.098
2021-04-20 17:47:30.234590,-95.94458
2021-04-20 17:47:30.250210,-95.02594
2021-04-20 17:47:30.265840,-96.18317
2021-04-20 17:47:30.281460,-98.85773
2021-04-20 17:47:30.297090,-101.7762
2021-04-20 17:47:30.312710,-103.5261
2021-04-20 17:47:30.328340,-103.2219
2021-04-20 17:47:30.343970,-100.7435
2021-04-20 17:47:30.359590,-96.61444
2021-04-20 17:47:30.375220,-91.58185
2021-04-20 17:47:30.390840,-86.16895
2021-04-20 17:47:30.406470,-80.50775
2021-04-20 17:47:30.422090,-74.4209
2021-04-20 17:47:30.437720,-67.72888
2021-04-20 17:47:30.453350,-60.46588
2021-04-20 17:47:30.468970,-52.8797
2021-04-20 17:47:30.484600,-45.20386
2021-04-20 17:47:30.500220,-37.3963
2021-04-20 17:47:30.515850,-28.9856
2021-04-20 17:47:30.531470,-19.19397
2021-04-20 17:47:30.547100,-7.310791
2021-04-20 17:47:30.562730,6.867371
2021-04-20 17:47:30.578350,22.79785
2021-04-20 17:47:30.593980,39.2262
2021-04-20 17:47:30.609600,54.60205
2021-04-20 17:47:30.625230,67.59314
2021-04-20 17:47:30.640850,77.59857
2021-04-20 17:47:30.656480,84.97552
2021-04-20 17:47:30.672110,90.90765
2021-04-20 17:47:30.687730,96.99109
2021-04-20 17:47:30.703360,104.6205
2021-04-20 17:47:30.718980,114.5036
2021-04-20 17:47:30.734610,126.4117
2021-04-20 17:47:30.750230,139.2938
2021-04-20 17:47:30.765860,151.6708
2021-04-20 17:47:30.781490,162.1603
2021-04-20 17:47:30.797110,169.9059
2021-04-20 17:47:30.812740,174.7814
2021-04-20 17:47:30.828360,177.2634
2021-04-20 17:47:30.843990,178.1266
2021-04-20 17:47:30.859610,178.0633
2021-04-20 17:47:30.875240,177.446
2021-04-20 17:47:30.890870,176.3079
2021-04-20 17:47:30.906490,174.4226
2021-04-20 17:47:30.922120,171.5312
2021-04-20 17:47:30.937740,167.4339
2021-04-20 17:47:30.953370,162.0384
2021-04-20 17:47:30.968990,155.2453
2021-04-20 17:47:30.984620,146.8791
2021-04-20 17:47:31.000250,136.5647
2021-04-20 17:47:31.015870,123.7927
2021-04-20 17:47:31.031500,108.1024
2021-04-20 17:47:31.047120,89.41522
2021-04-20 17:47:31.062750,68.31366
2021-04-20 17:47:31.078370,46.20773
2021-04-20 17:47:31.094000,25.08749
2021-04-20 17:47:31.109630,7.046295
2021-04-20 17:47:31.125250,-6.426941
2021-04-20 17:47:31.140880,-14.90228
2021-04-20 17:47:31.156500,-19.12946
2021-04-20 17:47:31.172130,-20.63239
2021-04-20 17:47:31.187760,-21.23871
2021-04-20 17:47:31.203380,-22.51691
2021-04-20 17:47:31.219010,-25.57394
2021-04-20 17:47:31.234630,-30.91443
2021-04-20 17:47:31.250260,-38.52151
2021-04-20 17:47:31.265880,-47.77298
2021-04-20 17:47:31.281510,-57.43001
2021-04-20 17:47:31.297140,-65.69677
2021-04-20 17:47:31.328390,-70.3579
2021-04-20 17:47:31.344010,-64.57678
2021-04-20 17:47:31.359640,-54.10148
2021-04-20 17:47:31.375260,-41.0666
2021-04-20 17:47:31.390890,-27.96344
2021-04-20 17:47:31.406520,-16.52087
2021-04-20 17:47:31.422140,-6.932987
2021-04-20 17:47:31.437770,2.151146
2021-04-20 17:47:31.453390,12.846
2021-04-20 17:47:31.469020,26.76575
2021-04-20 17:47:31.484640,44.14345
2021-04-20 17:47:31.500270,63.42677
2021-04-20 17:47:31.515900,81.89546
2021-04-20 17:47:31.531520,96.57677
2021-04-20 17:47:31.547150,105.3795
2021-04-20 17:47:31.562770,107.642
2021-04-20 17:47:31.578400,104.0687
2021-04-20 17:47:31.594020,96.16943
2021-04-20 17:47:31.609650,85.51669
2021-04-20 17:47:31.625280,73.22186
2021-04-20 17:47:31.640900,59.7153
2021-04-20 17:47:31.656530,44.97266
2021-04-20 17:47:31.672150,28.85501
2021-04-20 17:47:31.687780,11.44751
2021-04-20 17:47:31.703400,-6.84848
2021-04-20 17:47:31.719030,-25.52432
2021-04-20 17:47:31.734660,-44.28979
2021-04-20 17:47:31.750280,-63.42523
2021-04-20 17:47:31.765910,-83.82895
2021-04-20 17:47:31.781530,-106.8011
2021-04-20 17:47:31.797160,-133.5236
2021-04-20 17:47:31.812780,-164.4401
2021-04-20 17:47:31.828410,-198.7837
2021-04-20 17:47:31.844040,-234.4193
2021-04-20 17:47:31.859660,-268.1652
2021-04-20 17:47:31.875290,-296.5073
2021-04-20 17:47:31.890910,-316.564
2021-04-20 17:47:31.906540,-326.7032
2021-04-20 17:47:31.922160,-326.8245
2021-04-20 17:47:31.937790,-317.9778
2021-04-20 17:47:31.953420,-301.8125
2021-04-20 17:47:31.969040,-280.0429
2021-04-20 17:47:31.984670,-254.2847
2021-04-20 17:47:32.000290,-226.2581
2021-04-20 17:47:32.015920,-198.0256
2021-04-20 17:47:32.031540,-171.9389
2021-04-20 17:47:32.047170,-150.1026
2021-04-20 17:47:32.062800,-133.6259
2021-04-20 17:47:32.078420,-122.0568
2021-04-20 17:47:32.094050,-113.4725
2021-04-20 17:47:32.109670,-105.1353
2021-04-20 17:47:32.125300,-94.65643
2021-04-20 17:47:32.140920,-80.86041
2021-04-20 17:47:32.156550,-64.08893
2021-04-20 17:47:32.172180,-45.78394
2021-04-20 17:47:32.187800,-27.65338
2021-04-20 17:47:32.203430,-10.98737
2021-04-20 17:47:32.219050,3.547424
2021-04-20 17:47:32.234680,15.61316
2021-04-20 17:47:32.250300,24.85614
2021-04-20 17:47:32.265930,30.75073
2021-04-20 17:47:32.281560,32.88599
2021-04-20 17:47:32.297180,31.49896
2021-04-20 17:47:32.312810,27.7027
2021-04-20 17:47:32.328430,23.31989
2021-04-20 17:47:32.344060,20.19183
2021-04-20 17:47:32.359680,19.44977
2021-04-20 17:47:32.375310,21.0954
2021-04-20 17:47:32.390940,24.12219
2021-04-20 17:47:32.406560,27.04791
2021-04-20 17:47:32.422190,28.30072
2021-04-20 17:47:32.437810,26.49573
2021-04-20 17:47:32.453440,20.40845
2021-04-20 17:47:32.469060,9.221436
2021-04-20 17:47:32.484690,-7.221619
2021-04-20 17:47:32.515940,-51.12048
2021-04-20 17:47:32.531570,-73.84064
2021-04-20 17:47:32.547190,-93.39301
2021-04-20 17:47:32.562820,-107.6162
2021-04-20 17:47:32.578440,-115.2657
2021-04-20 17:47:32.594070,-116.0551
2021-04-20 17:47:32.609700,-110.4044
2021-04-20 17:47:32.625320,-99.27454
2021-04-20 17:47:32.640950,-84.05847
2021-04-20 17:47:32.656570,-66.44788
2021-04-20 17:47:32.672200,-48.22882
2021-04-20 17:47:32.687820,-30.94476
2021-04-20 17:47:32.703450,-15.62396
2021-04-20 17:47:32.719080,-2.670288
2021-04-20 17:47:32.734700,7.896606
2021-04-20 17:47:32.750330,16.19177
2021-04-20 17:47:32.765950,22.26141
2021-04-20 17:47:32.781580,26.16235
2021-04-20 17:47:32.797200,28.15009
2021-04-20 17:47:32.812830,28.84351
2021-04-20 17:47:32.828460,29.06921
2021-04-20 17:47:32.844080,29.62549
2021-04-20 17:47:32.859710,30.93268
2021-04-20 17:47:32.875330,32.92413
2021-04-20 17:47:32.890960,35.11774
2021-04-20 17:47:32.906580,36.93604
2021-04-20 17:47:32.922210,37.96741
2021-04-20 17:47:32.937840,38.15033
2021-04-20 17:47:32.953460,37.68494
2021-04-20 17:47:32.969090,36.91534
2021-04-20 17:47:32.984710,36.08826
2021-04-20 17:47:33.000340,35.28595
2021-04-20 17:47:33.015960,34.40289
2021-04-20 17:47:33.031590,33.25574
2021-04-20 17:47:33.047220,31.6189
2021-04-20 17:47:33.062840,29.25604
2021-04-20 17:47:33.078470,25.91425
2021-04-20 17:47:33.094090,21.43018
2021-04-20 17:47:33.109720,15.89441
2021-04-20 17:47:33.125340,9.894226
2021-04-20 17:47:33.140970,4.523743
2021-04-20 17:47:33.156600,1.203552
2021-04-20 17:47:33.172220,1.227722
2021-04-20 17:47:33.187850,5.290527
2021-04-20 17:47:33.203470,13.1637
2021-04-20 17:47:33.219100,23.7146
2021-04-20 17:47:33.234720,35.29932
2021-04-20 17:47:33.250350,46.23773
2021-04-20 17:47:33.265980,55.28894
2021-04-20 17:47:33.281600,61.84418
2021-04-20 17:47:33.297230,65.84698
2021-04-20 17:47:33.312850,67.53699
2021-04-20 17:47:33.328480,67.2316
2021-04-20 17:47:33.344100,65.14188
2021-04-20 17:47:33.359730,61.42224
2021-04-20 17:47:33.375360,56.28775
2021-04-20 17:47:33.390980,50.0563
2021-04-20 17:47:33.406610,43.09045
2021-04-20 17:47:33.422230,35.67343
2021-04-20 17:47:33.437860,27.84436
2021-04-20 17:47:33.453490,19.43298
2021-04-20 17:47:33.469110,10.27579
2021-04-20 17:47:33.484740,0.4891663
2021-04-20 17:47:33.500360,-9.36615
2021-04-20 17:47:33.515990,-18.39551
2021-04-20 17:47:33.531610,-25.80585
2021-04-20 17:47:33.547240,-31.36823
2021-04-20 17:47:33.562870,-35.67191
2021-04-20 17:47:33.578490,-39.93002
2021-04-20 17:47:33.594120,-45.4101
2021-04-20 17:47:33.609740,-52.74002
2021-04-20 17:47:33.625370,-61.51071
2021-04-20 17:47:33.656620,-77.53268
2021-04-20 17:47:33.672250,-81.47903
2021-04-20 17:47:33.687870,-81.48181
2021-04-20 17:47:33.703500,-77.71799
2021-04-20 17:47:33.719120,-71.0936
2021-04-20 17:47:33.734750,-62.76215
2021-04-20 17:47:33.750370,-53.75803
2021-04-20 17:47:33.766000,-44.76041
2021-04-20 17:47:33.781630,-36.06635
2021-04-20 17:47:33.797250,-27.60712
2021-04-20 17:47:33.812880,-19.05234
2021-04-20 17:47:33.828500,-9.857605
2021-04-20 17:47:33.844130,0.5829163
2021-04-20 17:47:33.859750,12.77127
2021-04-20 17:47:33.875380,26.86041
2021-04-20 17:47:33.891010,42.52823
2021-04-20 17:47:33.906630,58.97409
2021-04-20 17:47:33.922260,75.19989
2021-04-20 17:47:33.937880,90.35864
2021-04-20 17:47:33.953510,104.0895
2021-04-20 17:47:33.969130,116.6584
2021-04-20 17:47:33.984760,128.7433
2021-04-20 17:47:34.000390,140.9342
2021-04-20 17:47:34.016010,153.2271
2021-04-20 17:47:34.031640,164.6618
2021-04-20 17:47:34.047260,173.4026
2021-04-20 17:47:34.062890,177.1584
2021-04-20 17:47:34.078510,173.9135
2021-04-20 17:47:34.094140,162.5697
2021-04-20 17:47:34.109770,143.2996
2021-04-20 17:47:34.125390,117.5526
2021-04-20 17:47:34.141020,87.56458
2021-04-20 17:47:34.156640,55.72205
2021-04-20 17:47:34.172270,23.96027
2021-04-20 17:47:34.187890,-6.542786
2021-04-20 17:47:34.203520,-35.24841
2021-04-20 17:47:34.219150,-61.95895
2021-04-20 17:47:34.234770,-86.42535
2021-04-20 17:47:34.250400,-108.0807
2021-04-20 17:47:34.266020,-125.9963
2021-04-20 17:47:34.281650,-139.0793
2021-04-20 17:47:34.297270,-146.351
2021-04-20 17:47:34.312900,-147.3328
2021-04-20 17:47:34.328530,-142.2231
2021-04-20 17:47:34.344150,-132.0691
2021-04-20 17:47:34.359780,-118.586
2021-04-20 17:47:34.375400,-103.8997
2021-04-20 17:47:34.391030,-89.97797
2021-04-20 17:47:34.406650,-78.12897
2021-04-20 17:47:34.422280,-68.61212
2021-04-20 17:47:34.437910,-60.62448
2021-04-20 17:47:34.453530,-52.7395
2021-04-20 17:47:34.469160,-43.46216
2021-04-20 17:47:34.484780,-31.81909
2021-04-20 17:47:34.500410,-17.64886
2021-04-20 17:47:34.516030,-1.542786
2021-04-20 17:47:34.531660,15.43195
2021-04-20 17:47:34.547290,32.0694
2021-04-20 17:47:34.562910,47.20813
2021-04-20 17:47:34.578540,59.92334
2021-04-20 17:47:34.594160,69.51538
2021-04-20 17:47:34.609790,75.53387
2021-04-20 17:47:34.625410,77.84253
2021-04-20 17:47:34.641040,76.6123
2021-04-20 17:47:34.656670,72.35791
2021-04-20 17:47:34.672290,65.87598
2021-04-20 17:47:34.687920,58.07715
2021-04-20 17:47:34.703540,49.73889
2021-04-20 17:47:34.719170,41.35089
2021-04-20 17:47:34.734790,32.97772
2021-04-20 17:47:34.750420,24.34552
2021-04-20 17:47:34.766050,15.05426
2021-04-20 17:47:34.781670,4.863831
2021-04-20 17:47:34.797300,-6.109985
2021-04-20 17:47:34.812920,-17.38965
2021-04-20 17:47:34.828550,-28.34497
2021-04-20 17:47:34.844170,-38.5014
2021-04-20 17:47:34.859800,-47.75891
2021-04-20 17:47:34.875430,-56.39795
2021-04-20 17:47:34.891050,-64.85938
2021-04-20 17:47:34.906680,-73.46112
2021-04-20 17:47:34.922300,-82.24146
2021-04-20 17:47:34.937930,-91.0238
2021-04-20 17:47:34.953550,-99.63693
2021-04-20 17:47:34.969180,-108.1304
2021-04-20 17:47:34.984810,-116.8746
2021-04-20 17:47:35.000430,-126.4083
2021-04-20 17:47:35.016060,-137.1823
2021-04-20 17:47:35.031680,-149.362
2021-04-20 17:47:35.047310,-162.683
2021-04-20 17:47:35.062930,-176.4088
2021-04-20 17:47:35.078560,-189.3165
2021-04-20 17:47:35.094190,-199.7294
2021-04-20 17:47:35.109810,-205.624
2021-04-20 17:47:35.125440,-205.008
2021-04-20 17:47:35.141060,-196.4699
2021-04-20 17:47:35.156690,-179.7453
2021-04-20 17:47:35.172310,-156.0405
2021-04-20 17:47:35.187940,-127.7886
2021-04-20 17:47:35.203570,-98.05017
2021-04-20 17:47:35.219190,-69.60071
2021-04-20 17:47:35.234820,-44.29358
2021-04-20 17:47:35.250440,-22.81796
2021-04-20 17:47:35.266070,-4.958282
2021-04-20 17:47:35.281690,9.913635
2021-04-20 17:47:35.297320,22.42896
2021-04-20 17:47:35.312950,33.02167
2021-04-20 17:47:35.328570,42.03836
2021-04-20 17:47:35.344200,49.87604
2021-04-20 17:47:35.359820,57.07889
2021-04-20 17:47:35.375450,64.26007
2021-04-20 17:47:35.391070,71.86432
2021-04-20 17:47:35.406700,79.96201
2021-04-20 17:47:35.422330,88.09497
2021-04-20 17:47:35.437950,95.38782
2021-04-20 17:47:35.453580,100.7559
2021-04-20 17:47:35.469200,103.236
2021-04-20 17:47:35.484830,102.2609
2021-04-20 17:47:35.500450,97.71796
2021-04-20 17:47:35.516080,89.92426
2021-04-20 17:47:35.531710,79.52919
2021-04-20 17:47:35.547330,67.37804
2021-04-20 17:47:35.562960,54.48178
2021-04-20 17:47:35.578580,41.96725
2021-04-20 17:47:35.594210,30.97026
2021-04-20 17:47:35.609830,22.4528
2021-04-20 17:47:35.625460,16.89261
2021-04-20 17:47:35.641090,14.11264
2021-04-20 17:47:35.656710,13.21251
2021-04-20 17:47:35.672340,12.78064
2021-04-20 17:47:35.687960,11.27676
2021-04-20 17:47:35.703590,7.438347
2021-04-20 17:47:35.719210,0.5954285
2021-04-20 17:47:35.734840,-9.247124
2021-04-20 17:47:35.750470,-21.38866
2021-04-20 17:47:35.766090,-34.45824
2021-04-20 17:47:35.781720,-46.5331
2021-04-20 17:47:35.797340,-55.43067
2021-04-20 17:47:35.812970,-59.24274
2021-04-20 17:47:35.828590,-56.91714
2021-04-20 17:47:35.844220,-48.69587
2021-04-20 17:47:35.859850,-36.14477
2021-04-20 17:47:35.875470,-21.62978
2021-04-20 17:47:35.891100,-7.540699
2021-04-20 17:47:35.906720,4.497567
2021-04-20 17:47:35.922350,13.87615
2021-04-20 17:47:35.937970,20.87159
2021-04-20 17:47:35.953600,26.12555
2021-04-20 17:47:35.969230,30.11141
2021-04-20 17:47:35.984850,32.95395
2021-04-20 17:47:36.000480,34.51456
2021-04-20 17:47:36.016100,34.6814
2021-04-20 17:47:36.031730,33.49968
2021-04-20 17:47:36.047350,31.25166
2021-04-20 17:47:36.062980,28.30296
2021-04-20 17:47:36.078610,24.95252
2021-04-20 17:47:36.094230,21.37019
2021-04-20 17:47:36.109860,17.60886
2021-04-20 17:47:36.125480,13.68077
2021-04-20 17:47:36.141110,9.68206
2021-04-20 17:47:36.156740,5.889725
2021-04-20 17:47:36.172360,2.840485
2021-04-20 17:47:36.187990,1.236954
2021-04-20 17:47:36.203610,1.733917
2021-04-20 17:47:36.219240,4.652908
2021-04-20 17:47:36.234860,9.670486
2021-04-20 17:47:36.250490,15.84671
2021-04-20 17:47:36.266120,21.84236
2021-04-20 17:47:36.281740,26.36049
2021-04-20 17:47:36.297370,28.64124
2021-04-20 17:47:36.312990,28.61841
2021-04-20 17:47:36.328620,26.82059
2021-04-20 17:47:36.344240,23.94804
2021-04-20 17:47:36.359870,20.4417
2021-04-20 17:47:36.375500,16.23126
2021-04-20 17:47:36.391120,10.77342
2021-04-20 17:47:36.406750,3.262527
2021-04-20 17:47:36.422370,-6.949173
2021-04-20 17:47:36.438000,-20.00018
2021-04-20 17:47:36.453620,-35.30203
2021-04-20 17:47:36.469250,-51.43481
2021-04-20 17:47:36.484880,-66.27667
2021-04-20 17:47:36.500500,-77.41843
2021-04-20 17:47:36.516130,-82.68076
2021-04-20 17:47:36.531750,-80.64236
2021-04-20 17:47:36.547380,-70.92172
2021-04-20 17:47:36.563000,-54.2449
2021-04-20 17:47:36.578630,-32.16531
2021-04-20 17:47:36.594260,-6.799744
2021-04-20 17:47:36.609880,19.578
2021-04-20 17:47:36.625510,44.7562
2021-04-20 17:47:36.641130,66.89502
2021-04-20 17:47:36.656760,84.64392
2021-04-20 17:47:36.672380,97.3183
2021-04-20 17:47:36.688010,104.9127
2021-04-20 17:47:36.703640,108.0138
2021-04-20 17:47:36.719260,107.5925
2021-04-20 17:47:36.734890,104.7396
2021-04-20 17:47:36.750510,100.5458
2021-04-20 17:47:36.766140,95.97375
2021-04-20 17:47:36.781760,91.72379
2021-04-20 17:47:36.797390,88.12607
2021-04-20 17:47:36.813020,85.0058
2021-04-20 17:47:36.828640,81.81857
2021-04-20 17:47:36.844270,77.98996
2021-04-20 17:47:36.859890,73.37955
2021-04-20 17:47:36.875520,68.65976
2021-04-20 17:47:36.891140,65.27228
2021-04-20 17:47:36.906770,64.8934
2021-04-20 17:47:36.922400,68.65494
2021-04-20 17:47:36.938020,76.59985
2021-04-20 17:47:36.953650,87.45474
2021-04-20 17:47:36.969270,99.04636
2021-04-20 17:47:36.984900,109.002
2021-04-20 17:47:37.000520,115.4703
2021-04-20 17:47:37.016150,117.4991
2021-04-20 17:47:37.031780,114.9984
2021-04-20 17:47:37.047400,108.443
2021-04-20 17:47:37.063030,98.44818
2021-04-20 17:47:37.078650,85.5878
2021-04-20 17:47:37.094280,70.29031
2021-04-20 17:47:37.109900,52.91364
2021-04-20 17:47:37.125530,33.79712
2021-04-20 17:47:37.141160,13.27377
2021-04-20 17:47:37.172410,-30.29349
2021-04-20 17:47:37.188030,-51.91171
2021-04-20 17:47:37.203660,-71.76917
2021-04-20 17:47:37.219280,-88.17838
2021-04-20 17:47:37.234910,-99.48175
2021-04-20 17:47:37.250540,-104.5595
2021-04-20 17:47:37.266160,-103.244
2021-04-20 17:47:37.281790,-96.44687
2021-04-20 17:47:37.297410,-85.9248
2021-04-20 17:47:37.313040,-73.74854
2021-04-20 17:47:37.328660,-61.80884
2021-04-20 17:47:37.344290,-51.30988
2021-04-20 17:47:37.359920,-42.83786
2021-04-20 17:47:37.375540,-36.41635
2021-04-20 17:47:37.391170,-31.85727
2021-04-20 17:47:37.406790,-28.94852
2021-04-20 17:47:37.422420,-27.5145
2021-04-20 17:47:37.438040,-27.31873
2021-04-20 17:47:37.453670,-27.9534
2021-04-20 17:47:37.469300,-28.80865
2021-04-20 17:47:37.484920,-29.26093
2021-04-20 17:47:37.500550,-28.87698
2021-04-20 17:47:37.516170,-27.64166
2021-04-20 17:47:37.531800,-25.82278
2021-04-20 17:47:37.547420,-23.67856
2021-04-20 17:47:37.563050,-21.19406
2021-04-20 17:47:37.578680,-17.96582
2021-04-20 17:47:37.594300,-13.44604
2021-04-20 17:47:37.609930,-7.377808
2021-04-20 17:47:37.625550,-0.08151245
2021-04-20 17:47:37.641180,7.557434
2021-04-20 17:47:37.656800,14.52722
2021-04-20 17:47:37.672430,20.14609
2021-04-20 17:47:37.688060,24.31683
2021-04-20 17:47:37.703680,27.51233
2021-04-20 17:47:37.719310,30.34537
2021-04-20 17:47:37.734930,33.28931
2021-04-20 17:47:37.750560,36.44067
2021-04-20 17:47:37.766180,39.63907
2021-04-20 17:47:37.781810,42.59009
2021-04-20 17:47:37.797440,45.026
2021-04-20 17:47:37.813060,46.73129
2021-04-20 17:47:37.828690,47.47678
2021-04-20 17:47:37.844310,47.1225
2021-04-20 17:47:37.859940,45.6759
2021-04-20 17:47:37.875560,43.46548
2021-04-20 17:47:37.891190,41.16293
2021-04-20 17:47:37.906820,39.66223
2021-04-20 17:47:37.922440,39.81766
2021-04-20 17:47:37.938070,42.19254
2021-04-20 17:47:37.953690,46.83292
2021-04-20 17:47:37.969320,53.1813
2021-04-20 17:47:37.984940,60.13165
2021-04-20 17:47:38.000570,66.2196
2021-04-20 17:47:38.016200,69.86099
2021-04-20 17:47:38.031820,69.67255
2021-04-20 17:47:38.047450,64.89203
2021-04-20 17:47:38.063070,55.64163
2021-04-20 17:47:38.078700,43.10767
2021-04-20 17:47:38.094320,29.44077
2021-04-20 17:47:38.109950,17.16492
2021-04-20 17:47:38.125580,8.467316
2021-04-20 17:47:38.141200,4.361694
2021-04-20 17:47:38.156830,4.303711
2021-04-20 17:47:38.172450,6.413544
2021-04-20 17:47:38.188080,8.226654
2021-04-20 17:47:38.203700,7.710724
2021-04-20 17:47:38.219330,4.011444
2021-04-20 17:47:38.234960,-2.345642
2021-04-20 17:47:38.250580,-9.901062
2021-04-20 17:47:38.266210,-17.03033
2021-04-20 17:47:38.297460,-26.5654
2021-04-20 17:47:38.313090,-29.17624
2021-04-20 17:47:38.328710,-31.13974
2021-04-20 17:47:38.344340,-32.94409
2021-04-20 17:47:38.359960,-34.77094
2021-04-20 17:47:38.375590,-36.62244
2021-04-20 17:47:38.391210,-38.59833
2021-04-20 17:47:38.406840,-41.05075
2021-04-20 17:47:38.422470,-44.46899
2021-04-20 17:47:38.438090,-49.21246
2021-04-20 17:47:38.453720,-55.14642
2021-04-20 17:47:38.469340,-61.56039
2021-04-20 17:47:38.484970,-67.37534
2021-04-20 17:47:38.500590,-71.60858
2021-04-20 17:47:38.516220,-73.79742
2021-04-20 17:47:38.531850,-74.2121
2021-04-20 17:47:38.547470,-73.59702
2021-04-20 17:47:38.563100,-72.81839
2021-04-20 17:47:38.578720,-72.46542
2021-04-20 17:47:38.594350,-72.79321
2021-04-20 17:47:38.609970,-73.90305
2021-04-20 17:47:38.625600,-75.94217
2021-04-20 17:47:38.641230,-79.17654
2021-04-20 17:47:38.656850,-83.72318
2021-04-20 17:47:38.672480,-89.12723
2021-04-20 17:47:38.688100,-94.14566
2021-04-20 17:47:38.703730,-96.89316
2021-04-20 17:47:38.719350,-95.41721
2021-04-20 17:47:38.734980,-88.33441
2021-04-20 17:47:38.750610,-75.43356
2021-04-20 17:47:38.766230,-57.68484
2021-04-20 17:47:38.781860,-36.90155
2021-04-20 17:47:38.797480,-15.17517
2021-04-20 17:47:38.813110,5.668396
2021-04-20 17:47:38.828730,24.41367
2021-04-20 17:47:38.844360,40.44882
2021-04-20 17:47:38.859990,53.64703
2021-04-20 17:47:38.875610,64.13547
2021-04-20 17:47:38.891240,72.16541
2021-04-20 17:47:38.906860,78.04367
2021-04-20 17:47:38.922490,82.14124
2021-04-20 17:47:38.938110,84.9108
2021-04-20 17:47:38.953740,86.81827
2021-04-20 17:47:38.969370,88.29123
2021-04-20 17:47:38.984990,89.59351
2021-04-20 17:47:39.000620,90.79886
2021-04-20 17:47:39.016240,91.79028
2021-04-20 17:47:39.031870,92.31534
2021-04-20 17:47:39.047490,92.12622
2021-04-20 17:47:39.063120,91.04288
2021-04-20 17:47:39.078750,89.04456
2021-04-20 17:47:39.094370,86.23901
2021-04-20 17:47:39.110000,82.83163
2021-04-20 17:47:39.125620,79.02747
2021-04-20 17:47:39.141250,74.98691
2021-04-20 17:47:39.156870,70.76862
2021-04-20 17:47:39.172500,66.31824
2021-04-20 17:47:39.188130,61.50262
2021-04-20 17:47:39.203750,56.16632
2021-04-20 17:47:39.219380,50.15652
2021-04-20 17:47:39.235000,43.40909
2021-04-20 17:47:39.250630,35.9697
2021-04-20 17:47:39.266250,27.9325
2021-04-20 17:47:39.281880,19.41702
2021-04-20 17:47:39.297510,10.54648
2021-04-20 17:47:39.313130,1.385834
2021-04-20 17:47:39.328760,-8.080444
2021-04-20 17:47:39.344380,-17.98624
2021-04-20 17:47:39.360010,-28.62503
2021-04-20 17:47:39.375630,-40.44031
2021-04-20 17:47:39.391260,-53.92542
2021-04-20 17:47:39.406890,-69.45996
2021-04-20 17:47:39.422510,-87.01212
2021-04-20 17:47:39.438140,-105.8511
2021-04-20 17:47:39.453760,-124.316
2021-04-20 17:47:39.469390,-139.938
2021-04-20 17:47:39.485010,-149.8847
2021-04-20 17:47:39.500640,-151.6887
2021-04-20 17:47:39.516270,-144.0141
2021-04-20 17:47:39.531890,-127.1472
2021-04-20 17:47:39.547520,-102.9934
2021-04-20 17:47:39.563140,-74.63367
2021-04-20 17:47:39.578770,-45.57571
2021-04-20 17:47:39.594390,-18.97977
2021-04-20 17:47:39.610020,2.909149
2021-04-20 17:47:39.625650,18.98767
2021-04-20 17:47:39.641270,29.25653
2021-04-20 17:47:39.656900,34.54465
2021-04-20 17:47:39.672520,36.18073
2021-04-20 17:47:39.688150,35.62015
2021-04-20 17:47:39.703770,34.09283
2021-04-20 17:47:39.719400,32.40128
2021-04-20 17:47:39.735030,30.78546
2021-04-20 17:47:39.750650,29.18045
2021-04-20 17:47:39.766280,27.45206
2021-04-20 17:47:39.781900,25.70102
2021-04-20 17:47:39.797530,24.28934
2021-04-20 17:47:39.813150,23.78384
2021-04-20 17:47:39.828780,24.63275
2021-04-20 17:47:39.844410,26.97989
2021-04-20 17:47:39.860030,30.56235
2021-04-20 17:47:39.875660,34.78223
2021-04-20 17:47:39.891280,38.87589
2021-04-20 17:47:39.906910,42.15717
2021-04-20 17:47:39.922530,44.1488
2021-04-20 17:47:39.938160,44.64346
2021-04-20 17:47:39.953790,43.65942
2021-04-20 17:47:39.969410,41.34952
2021-04-20 17:47:39.985040,37.88123
2021-04-20 17:47:40.000660,33.4361
2021-04-20 17:47:40.016290,28.24139
2021-04-20 17:47:40.031910,22.59241
2021-04-20 17:47:40.047540,16.91089
2021-04-20 17:47:40.063170,11.70508
2021-04-20 17:47:40.078790,7.423035
2021-04-20 17:47:40.094420,4.300049
2021-04-20 17:47:40.110040,2.173401
2021-04-20 17:47:40.125670,0.468689
2021-04-20 17:47:40.141290,-1.69632
2021-04-20 17:47:40.156920,-5.289001
2021-04-20 17:47:40.172550,-11.17517
2021-04-20 17:47:40.188170,-19.8772
2021-04-20 17:47:40.203800,-31.51605
2021-04-20 17:47:40.219420,-45.62302
2021-04-20 17:47:40.235050,-61.07007
2021-04-20 17:47:40.250670,-76.01767
2021-04-20 17:47:40.266300,-88.17239
2021-04-20 17:47:40.281930,-95.24823
2021-04-20 17:47:40.297550,-95.68402
2021-04-20 17:47:40.313180,-89.16708
2021-04-20 17:47:40.328800,-76.86169
2021-04-20 17:47:40.344430,-61.0834
2021-04-20 17:47:40.360050,-44.63324
2021-04-20 17:47:40.375680,-29.98965
2021-04-20 17:47:40.391310,-18.78473
2021-04-20 17:47:40.406930,-11.60901
2021-04-20 17:47:40.422560,-8.155914
2021-04-20 17:47:40.438180,-7.546143
2021-04-20 17:47:40.453810,-8.634094
2021-04-20 17:47:40.469430,-10.16638
2021-04-20 17:47:40.485060,-10.91241
2021-04-20 17:47:40.500690,-9.716003
2021-04-20 17:47:40.516310,-5.589478
2021-04-20 17:47:40.531940,2.059631
2021-04-20 17:47:40.563190,27.52811
2021-04-20 17:47:40.578810,43.62164
2021-04-20 17:47:40.594440,60.00336
2021-04-20 17:47:40.610070,75.04913
2021-04-20 17:47:40.625690,87.41556
2021-04-20 17:47:40.641320,96.39374
2021-04-20 17:47:40.656940,102.0521
2021-04-20 17:47:40.672570,105.0961
2021-04-20 17:47:40.688190,106.6536
2021-04-20 17:47:40.703820,107.8592
2021-04-20 17:47:40.719450,109.5476
2021-04-20 17:47:40.735070,112.0128
2021-04-20 17:47:40.750700,115.0614
2021-04-20 17:47:40.766320,118.0451
2021-04-20 17:47:40.781950,120.0887
2021-04-20 17:47:40.797580,120.3345
2021-04-20 17:47:40.813200,118.1698
2021-04-20 17:47:40.828830,113.4359
2021-04-20 17:47:40.844450,106.448
2021-04-20 17:47:40.860080,97.88159
2021-04-20 17:47:40.875700,88.60913
2021-04-20 17:47:40.891330,79.45291
2021-04-20 17:47:40.906960,70.96017
2021-04-20 17:47:40.922580,63.35703
2021-04-20 17:47:40.938210,56.49164
2021-04-20 17:47:40.953830,49.89673
2021-04-20 17:47:40.969460,42.81943
2021-04-20 17:47:40.985080,34.44528
2021-04-20 17:47:41.000710,24.13095
2021-04-20 17:47:41.016340,11.73358
2021-04-20 17:47:41.031960,-2.166351
2021-04-20 17:47:41.047590,-16.32303
2021-04-20 17:47:41.063210,-29.17798
2021-04-20 17:47:41.078840,-39.41599
2021-04-20 17:47:41.094460,-46.40356
2021-04-20 17:47:41.110090,-50.35397
2021-04-20 17:47:41.125720,-52.0831
2021-04-20 17:47:41.141340,-52.47141
2021-04-20 17:47:41.156970,-52.0123
2021-04-20 17:47:41.172590,-50.67465
2021-04-20 17:47:41.188220,-48.18134
2021-04-20 17:47:41.203840,-44.35574
2021-04-20 17:47:41.219470,-39.48596
2021-04-20 17:47:41.235100,-34.33499
2021-04-20 17:47:41.250720,-29.90366
2021-04-20 17:47:41.266350,-26.99124
2021-04-20 17:47:41.281970,-25.97311
2021-04-20 17:47:41.297600,-26.6665
2021-04-20 17:47:41.313220,-28.45609
2021-04-20 17:47:41.328850,-30.48654
2021-04-20 17:47:41.344480,-31.81473
2021-04-20 17:47:41.360100,-31.68219
2021-04-20 17:47:41.375730,-29.62808
2021-04-20 17:47:41.391350,-25.61859
2021-04-20 17:47:41.406980,-20.07208
2021-04-20 17:47:41.422600,-13.72226
2021-04-20 17:47:41.438230,-7.441528
2021-04-20 17:47:41.453860,-1.971848
2021-04-20 17:47:41.469480,2.128448
2021-04-20 17:47:41.485110,4.542755
2021-04-20 17:47:41.500730,5.032669
2021-04-20 17:47:41.516360,3.480591
2021-04-20 17:47:41.531980,-0.1015778
2021-04-20 17:47:41.547610,-5.38092
2021-04-20 17:47:41.563240,-11.62302
2021-04-20 17:47:41.578860,-17.79977
2021-04-20 17:47:41.594490,-22.83362
2021-04-20 17:47:41.610110,-26.08441
2021-04-20 17:47:41.625740,-27.61626
2021-04-20 17:47:41.641360,-28.20111
2021-04-20 17:47:41.656990,-29.0029
2021-04-20 17:47:41.688240,-35.07307
2021-04-20 17:47:41.703870,-41.06381
2021-04-20 17:47:41.719490,-48.75246
2021-04-20 17:47:41.735120,-57.57059
2021-04-20 17:47:41.750740,-66.78046
2021-04-20 17:47:41.766370,-75.32426
2021-04-20 17:47:41.782000,-81.79327
2021-04-20 17:47:41.797620,-84.58171
2021-04-20 17:47:41.813250,-82.26183
2021-04-20 17:47:41.828870,-74.25072
2021-04-20 17:47:41.844500,-61.08195
2021-04-20 17:47:41.860120,-44.5289
2021-04-20 17:47:41.875750,-27.01711
2021-04-20 17:47:41.891380,-10.98901
2021-04-20 17:47:41.907000,1.7686
2021-04-20 17:47:41.922630,10.40755
2021-04-20 17:47:41.938250,14.91
2021-04-20 17:47:41.953880,15.77773
2021-04-20 17:47:41.969500,13.70548
2021-04-20 17:47:41.985130,9.549942
2021-04-20 17:47:42.000760,4.244209
2021-04-20 17:47:42.016380,-1.122185
2021-04-20 17:47:42.032010,-5.472244
2021-04-20 17:47:42.047630,-7.951721
2021-04-20 17:47:42.063260,-8.261429
2021-04-20 17:47:42.078880,-6.675888
2021-04-20 17:47:42.094510,-3.89344
2021-04-20 17:47:42.110140,-0.7084656
2021-04-20 17:47:42.125760,2.378021
2021-04-20 17:47:42.141390,5.215172
2021-04-20 17:47:42.157010,7.850327
2021-04-20 17:47:42.172640,10.16628
2021-04-20 17:47:42.188260,11.65726
2021-04-20 17:47:42.203890,11.47796
2021-04-20 17:47:42.219520,8.826775
2021-04-20 17:47:42.235140,3.412102
2021-04-20 17:47:42.250770,-4.280251
2021-04-20 17:47:42.266390,-13.02319
2021-04-20 17:47:42.282020,-21.29807
2021-04-20 17:47:42.297640,-27.78494
2021-04-20 17:47:42.313270,-31.73862
2021-04-20 17:47:42.328900,-33.15727
2021-04-20 17:47:42.344520,-32.59459
2021-04-20 17:47:42.360150,-30.97763
2021-04-20 17:47:42.375770,-29.27519
2021-04-20 17:47:42.391400,-28.3743
2021-04-20 17:47:42.407020,-28.80753
2021-04-20 17:47:42.422650,-30.68749
2021-04-20 17:47:42.438280,-33.42494
2021-04-20 17:47:42.453900,-35.77901
2021-04-20 17:47:42.469530,-35.99843
2021-04-20 17:47:42.485150,-32.35068
2021-04-20 17:47:42.500780,-23.70013
2021-04-20 17:47:42.516400,-10.10629
2021-04-20 17:47:42.532030,7.048599
2021-04-20 17:47:42.547660,25.45239
2021-04-20 17:47:42.563280,42.5657
2021-04-20 17:47:42.578910,56.51794
2021-04-20 17:47:42.594530,66.56479
2021-04-20 17:47:42.610160,73.00687
2021-04-20 17:47:42.625780,76.59087
2021-04-20 17:47:42.641410,77.81574
2021-04-20 17:47:42.657040,76.53629
2021-04-20 17:47:42.672660,72.05785
2021-04-20 17:47:42.688290,63.76143
2021-04-20 17:47:42.703910,51.68161
2021-04-20 17:47:42.719540,36.80791
2021-04-20 17:47:42.735160,20.81619
2021-04-20 17:47:42.750790,5.407379
2021-04-20 17:47:42.766420,-8.255539
2021-04-20 17:47:42.782040,-19.81575
2021-04-20 17:47:42.797670,-29.59151
2021-04-20 17:47:42.813290,-38.0285
2021-04-20 17:47:42.828920,-45.46673
2021-04-20 17:47:42.844540,-52.04578
2021-04-20 17:47:42.860170,-58.00696
2021-04-20 17:47:42.875800,-63.89592
2021-04-20 17:47:42.891420,-70.51864
2021-04-20 17:47:42.907050,-78.39047
2021-04-20 17:47:42.922670,-87.17654
2021-04-20 17:47:42.938300,-95.32338
2021-04-20 17:47:42.953920,-100.4583
2021-04-20 17:47:42.969550,-100.2747
2021-04-20 17:47:42.985180,-93.65071
2021-04-20 17:47:43.000800,-81.15325
2021-04-20 17:47:43.016430,-64.89211
2021-04-20 17:47:43.032050,-47.57828
2021-04-20 17:47:43.047680,-31.56895
2021-04-20 17:47:43.063300,-18.19639
2021-04-20 17:47:43.078930,-7.704369
2021-04-20 17:47:43.094560,0.4315643
2021-04-20 17:47:43.110180,7.101837
2021-04-20 17:47:43.125810,13.32138
2021-04-20 17:47:43.141430,20.18668
2021-04-20 17:47:43.157060,28.72205
2021-04-20 17:47:43.172690,39.51321
2021-04-20 17:47:43.188310,52.23999
2021-04-20 17:47:43.203940,65.45233
2021-04-20 17:47:43.219560,76.89378
2021-04-20 17:47:43.235190,84.32106
2021-04-20 17:47:43.250810,86.37572
2021-04-20 17:47:43.266440,83.16307
2021-04-20 17:47:43.282070,76.09959
2021-04-20 17:47:43.297690,67.1541
2021-04-20 17:47:43.313320,57.92783
2021-04-20 17:47:43.328940,49.09888
2021-04-20 17:47:43.344570,40.42365
2021-04-20 17:47:43.360190,31.19531
2021-04-20 17:47:43.375820,20.89909
2021-04-20 17:47:43.391450,9.628159
2021-04-20 17:47:43.407070,-1.942856
2021-04-20 17:47:43.422700,-12.82719
2021-04-20 17:47:43.438320,-22.15863
2021-04-20 17:47:43.453950,-29.45085
2021-04-20 17:47:43.469570,-34.63898
2021-04-20 17:47:43.485200,-37.94141
2021-04-20 17:47:43.500830,-39.66217
2021-04-20 17:47:43.516450,-40.07426
2021-04-20 17:47:43.532080,-39.39752
2021-04-20 17:47:43.547700,-37.85881
2021-04-20 17:47:43.563330,-35.79849
2021-04-20 17:47:43.578950,-33.64377
2021-04-20 17:47:43.594580,-31.80717
2021-04-20 17:47:43.610210,-30.53525
2021-04-20 17:47:43.625830,-29.77592
2021-04-20 17:47:43.641460,-29.25134
2021-04-20 17:47:43.657080,-28.67274
2021-04-20 17:47:43.672710,-28.01567
2021-04-20 17:47:43.688330,-27.73389
2021-04-20 17:47:43.703960,-28.62119
2021-04-20 17:47:43.719590,-31.53078
2021-04-20 17:47:43.735210,-36.85828
2021-04-20 17:47:43.750840,-44.25778
2021-04-20 17:47:43.766460,-52.48663
2021-04-20 17:47:43.782090,-59.66441
2021-04-20 17:47:43.797710,-63.64548
2021-04-20 17:47:43.813340,-62.58525
2021-04-20 17:47:43.828970,-55.37161
2021-04-20 17:47:43.844590,-41.94202
2021-04-20 17:47:43.860220,-23.4032
2021-04-20 17:47:43.875840,-1.903656
2021-04-20 17:47:43.891470,19.8315
2021-04-20 17:47:43.907090,39.0639
2021-04-20 17:47:43.922720,53.69228
2021-04-20 17:47:43.938350,62.63016
2021-04-20 17:47:43.953970,65.9558
2021-04-20 17:47:43.969600,64.68358
2021-04-20 17:47:43.985220,60.3418
2021-04-20 17:47:44.000850,54.57243
2021-04-20 17:47:44.016470,48.85516
2021-04-20 17:47:44.032100,44.28423
2021-04-20 17:47:44.047730,41.52423
2021-04-20 17:47:44.063350,40.72913
2021-04-20 17:47:44.078980,41.58292
2021-04-20 17:47:44.094600,43.47504
2021-04-20 17:47:44.110230,45.65817
2021-04-20 17:47:44.125850,47.5575
2021-04-20 17:47:44.141480,48.91917
2021-04-20 17:47:44.157110,49.82448
2021-04-20 17:47:44.172730,50.48598
2021-04-20 17:47:44.188360,50.99738
2021-04-20 17:47:44.203980,51.19553
2021-04-20 17:47:44.219610,50.75682
2021-04-20 17:47:44.235230,49.47198
2021-04-20 17:47:44.250860,47.46257
2021-04-20 17:47:44.266490,45.31636
2021-04-20 17:47:44.282110,43.82944
2021-04-20 17:47:44.297740,43.6736
2021-04-20 17:47:44.313360,44.99298
2021-04-20 17:47:44.328990,47.26227
2021-04-20 17:47:44.344610,49.43735
2021-04-20 17:47:44.360240,50.3925
2021-04-20 17:47:44.375870,49.35809
2021-04-20 17:47:44.391490,46.20314
2021-04-20 17:47:44.407120,41.42078
2021-04-20 17:47:44.422740,35.9467
2021-04-20 17:47:44.438370,30.83188
2021-04-20 17:47:44.453990,27.05222
2021-04-20 17:47:44.469620,25.43361
2021-04-20 17:47:44.485250,26.61012
2021-04-20 17:47:44.500870,30.9662
2021-04-20 17:47:44.516500,38.55688
2021-04-20 17:47:44.532120,48.92297
2021-04-20 17:47:44.547750,61.01543
2021-04-20 17:47:44.563370,73.30679
2021-04-20 17:47:44.579000,84.09872
2021-04-20 17:47:44.594630,91.95833
2021-04-20 17:47:44.610250,96.15747
2021-04-20 17:47:44.625880,96.7941
2021-04-20 17:47:44.641500,94.63901
2021-04-20 17:47:44.657130,90.68961
2021-04-20 17:47:44.672750,85.73514
2021-04-20 17:47:44.688380,80.1073
2021-04-20 17:47:44.704010,73.74962
2021-04-20 17:47:44.719630,66.54421
2021-04-20 17:47:44.735260,58.53695
2021-04-20 17:47:44.750880,50.0768
2021-04-20 17:47:44.766510,41.61143
2021-04-20 17:47:44.782130,33.37496
2021-04-20 17:47:44.797760,25.20176
2021-04-20 17:47:44.813390,16.60406
2021-04-20 17:47:44.829010,7.156292
2021-04-20 17:47:44.844640,-3.173698
2021-04-20 17:47:44.860260,-13.80936
2021-04-20 17:47:44.875890,-23.74199
2021-04-20 17:47:44.891510,-31.95156
2021-04-20 17:47:44.907140,-37.83363
2021-04-20 17:47:44.922770,-41.41606
2021-04-20 17:47:44.938390,-43.30257
2021-04-20 17:47:44.954020,-44.40169
2021-04-20 17:47:44.969640,-45.54408
2021-04-20 17:47:44.985270,-47.28962
2021-04-20 17:47:45.000890,-49.94805
2021-04-20 17:47:45.016520,-53.71351
2021-04-20 17:47:45.032150,-58.83958
2021-04-20 17:47:45.047770,-65.70205
2021-04-20 17:47:45.063400,-74.65207
2021-04-20 17:47:45.079020,-85.71556
2021-04-20 17:47:45.094650,-98.36267
2021-04-20 17:47:45.110270,-111.3808
2021-04-20 17:47:45.125900,-123.0767
2021-04-20 17:47:45.141530,-131.656
2021-04-20 17:47:45.157150,-135.7052
2021-04-20 17:47:45.172780,-134.5621
2021-04-20 17:47:45.188400,-128.3787
2021-04-20 17:47:45.219650,-104.6472
2021-04-20 17:47:45.235280,-89.64833
2021-04-20 17:47:45.250910,-74.25234
2021-04-20 17:47:45.266530,-59.56581
2021-04-20 17:47:45.282160,-46.47731
2021-04-20 17:47:45.297780,-35.61142
2021-04-20 17:47:45.313410,-27.24728
2021-04-20 17:47:45.329030,-21.23584
2021-04-20 17:47:45.344660,-17.07251
2021-04-20 17:47:45.360290,-13.99123
2021-04-20 17:47:45.375910,-11.19524
2021-04-20 17:47:45.391540,-8.048996
2021-04-20 17:47:45.407160,-4.203003
2021-04-20 17:47:45.422790,0.4168549
2021-04-20 17:47:45.438420,5.646088
2021-04-20 17:47:45.454040,11.18887
2021-04-20 17:47:45.469670,16.66992
2021-04-20 17:47:45.485290,21.70364
2021-04-20 17:47:45.500920,25.92476
2021-04-20 17:47:45.516540,29.01698
2021-04-20 17:47:45.532170,30.74091
2021-04-20 17:47:45.547800,30.89137
2021-04-20 17:47:45.563420,29.27783
2021-04-20 17:47:45.579050,25.77486
2021-04-20 17:47:45.594670,20.44135
2021-04-20 17:47:45.610300,13.67775
2021-04-20 17:47:45.625920,6.22139
2021-04-20 17:47:45.641550,-0.9007416
2021-04-20 17:47:45.657180,-6.778732
2021-04-20 17:47:45.672800,-10.88625
2021-04-20 17:47:45.688430,-13.28151
2021-04-20 17:47:45.704050,-14.60381
2021-04-20 17:47:45.719680,-15.74368
2021-04-20 17:47:45.735300,-17.55089
2021-04-20 17:47:45.750930,-20.44441
2021-04-20 17:47:45.766560,-24.31274
2021-04-20 17:47:45.782180,-28.48634
2021-04-20 17:47:45.797810,-31.9453
2021-04-20 17:47:45.813430,-33.60292
2021-04-20 17:47:45.829060,-32.5838
2021-04-20 17:47:45.844680,-28.50539
2021-04-20 17:47:45.860310,-21.6391
2021-04-20 17:47:45.875940,-12.9232
2021-04-20 17:47:45.891560,-3.706085
2021-04-20 17:47:45.907190,4.561523
2021-04-20 17:47:45.922810,10.82782
2021-04-20 17:47:45.938440,14.59486
2021-04-20 17:47:45.954060,15.987
2021-04-20 17:47:45.969690,15.46596
2021-04-20 17:47:45.985320,13.57813
2021-04-20 17:47:46.000940,10.67734
2021-04-20 17:47:46.016570,6.905716
2021-04-20 17:47:46.032190,2.294998
2021-04-20 17:47:46.047820,-3.017197
2021-04-20 17:47:46.063440,-8.68306
2021-04-20 17:47:46.079070,-14.15126
2021-04-20 17:47:46.094700,-18.79681
2021-04-20 17:47:46.110320,-22.11244
2021-04-20 17:47:46.125950,-23.82367
2021-04-20 17:47:46.141570,-23.84595
2021-04-20 17:47:46.157200,-22.24294
2021-04-20 17:47:46.172820,-19.19049
2021-04-20 17:47:46.188450,-14.9873
2021-04-20 17:47:46.204080,-10.09682
2021-04-20 17:47:46.219700,-5.16687
2021-04-20 17:47:46.235330,-0.8825989
2021-04-20 17:47:46.250950,2.195999
2021-04-20 17:47:46.266580,3.7724
2021-04-20 17:47:46.282200,3.842773
2021-04-20 17:47:46.297830,2.6474
2021-04-20 17:47:46.313460,0.4856873
2021-04-20 17:47:46.329080,-2.402435
2021-04-20 17:47:46.344710,-5.841049
2021-04-20 17:47:46.360330,-9.708969
2021-04-20 17:47:46.375960,-13.85638
2021-04-20 17:47:46.391580,-18.14236
2021-04-20 17:47:46.407210,-22.46056
2021-04-20 17:47:46.422840,-26.7226
2021-04-20 17:47:46.438460,-30.78494
2021-04-20 17:47:46.454090,-34.25053
2021-04-20 17:47:46.469710,-36.37204
2021-04-20 17:47:46.485340,-36.10715
2021-04-20 17:47:46.500960,-32.50536
2021-04-20 17:47:46.516590,-25.09813
2021-04-20 17:47:46.532220,-14.25711
2021-04-20 17:47:46.547840,-1.239273
2021-04-20 17:47:46.563470,12.08243
2021-04-20 17:47:46.579090,23.78575
2021-04-20 17:47:46.594720,32.38101
2021-04-20 17:47:46.610340,37.19121
2021-04-20 17:47:46.625970,38.37317
2021-04-20 17:47:46.641600,36.74968
2021-04-20 17:47:46.657220,33.4317
2021-04-20 17:47:46.672850,29.44347
2021-04-20 17:47:46.688470,25.48672
2021-04-20 17:47:46.704100,21.96487
2021-04-20 17:47:46.719720,19.07906
2021-04-20 17:47:46.735350,17.00124
2021-04-20 17:47:46.750980,15.97301
2021-04-20 17:47:46.766600,16.18343
2021-04-20 17:47:46.782230,17.5764
2021-04-20 17:47:46.797850,19.71754
2021-04-20 17:47:46.813480,21.85075
2021-04-20 17:47:46.829100,23.1254
2021-04-20 17:47:46.844730,22.98387
2021-04-20 17:47:46.860360,21.38315
2021-04-20 17:47:46.875980,18.79803
2021-04-20 17:47:46.891610,15.94952
2021-04-20 17:47:46.907230,13.46295
2021-04-20 17:47:46.922860,11.56512
2021-04-20 17:47:46.938480,10.07147
2021-04-20 17:47:46.954110,8.54068
2021-04-20 17:47:46.969740,6.518143
2021-04-20 17:47:46.985360,3.754318
2021-04-20 17:47:47.000990,0.338089
2021-04-20 17:47:47.016610,-3.410751
2021-04-20 17:47:47.032240,-7.062912
2021-04-20 17:47:47.047860,-10.3078
2021-04-20 17:47:47.063490,-13.12515
2021-04-20 17:47:47.079120,-15.80589
2021-04-20 17:47:47.094740,-18.83675
2021-04-20 17:47:47.110370,-22.69789
2021-04-20 17:47:47.125990,-27.66264
2021-04-20 17:47:47.141620,-33.75183
2021-04-20 17:47:47.157240,-40.73041
2021-04-20 17:47:47.172870,-48.16115
2021-04-20 17:47:47.188500,-55.40184
2021-04-20 17:47:47.204120,-61.53146
2021-04-20 17:47:47.219750,-65.27608
2021-04-20 17:47:47.235370,-65.19992
2021-04-20 17:47:47.251000,-60.07181
2021-04-20 17:47:47.266620,-49.3257
2021-04-20 17:47:47.282250,-33.37691
2021-04-20 17:47:47.297880,-13.71863
2021-04-20 17:47:47.313500,7.455231
2021-04-20 17:47:47.329130,27.66788
2021-04-20 17:47:47.344750,44.77852
2021-04-20 17:47:47.360380,57.33757
2021-04-20 17:47:47.376000,64.79503
2021-04-20 17:47:47.391630,67.43761
2021-04-20 17:47:47.407260,66.24213
2021-04-20 17:47:47.422880,62.50818
2021-04-20 17:47:47.438510,57.4837
2021-04-20 17:47:47.454130,52.02972
2021-04-20 17:47:47.469760,46.49196
2021-04-20 17:47:47.485380,40.85886
2021-04-20 17:47:47.501010,35.08217
2021-04-20 17:47:47.516640,29.37602
2021-04-20 17:47:47.532260,24.32854
2021-04-20 17:47:47.547890,20.6445
2021-04-20 17:47:47.579140,18.69594
2021-04-20 17:47:47.594760,19.82204
2021-04-20 17:47:47.610390,21.55016
2021-04-20 17:47:47.626020,23.6049
2021-04-20 17:47:47.641640,26.22414
2021-04-20 17:47:47.657270,29.93727
2021-04-20 17:47:47.672890,35.01572
2021-04-20 17:47:47.688520,40.98738
2021-04-20 17:47:47.704140,46.6035
2021-04-20 17:47:47.719770,50.28989
2021-04-20 17:47:47.735400,50.87173
2021-04-20 17:47:47.751020,48.17992
2021-04-20 17:47:47.766650,43.10248
2021-04-20 17:47:47.782270,37.14037
2021-04-20 17:47:47.797900,31.63538
2021-04-20 17:47:47.813520,27.22824
2021-04-20 17:47:47.829150,23.68124
2021-04-20 17:47:47.844780,20.27464
2021-04-20 17:47:47.860400,16.22697
2021-04-20 17:47:47.876030,11.06219
2021-04-20 17:47:47.891650,4.608704
2021-04-20 17:47:47.907280,-3.126373
2021-04-20 17:47:47.922900,-11.99606
2021-04-20 17:47:47.938530,-21.54364
2021-04-20 17:47:47.954160,-30.77487
2021-04-20 17:47:47.969780,-38.09485
2021-04-20 17:47:47.985410,-41.67358
2021-04-20 17:47:48.001030,-40.11807
2021-04-20 17:47:48.016660,-33.21735
2021-04-20 17:47:48.032290,-22.22385
2021-04-20 17:47:48.047910,-9.514252
2021-04-20 17:47:48.063540,2.278229
2021-04-20 17:47:48.079160,11.21677
2021-04-20 17:47:48.094790,16.59781
2021-04-20 17:47:48.110410,18.88858
2021-04-20 17:47:48.126040,19.09778
2021-04-20 17:47:48.141670,18.10049
2021-04-20 17:47:48.157290,16.16022
2021-04-20 17:47:48.172920,13.03851
2021-04-20 17:47:48.188540,8.311798
2021-04-20 17:47:48.204170,1.933258
2021-04-20 17:47:48.219790,-5.548187
2021-04-20 17:47:48.235420,-13.09824
2021-04-20 17:47:48.251050,-19.60428
2021-04-20 17:47:48.266670,-24.27933
2021-04-20 17:47:48.282300,-26.90009
2021-04-20 17:47:48.297920,-27.75784
2021-04-20 17:47:48.313550,-27.42484
2021-04-20 17:47:48.329170,-26.42517
2021-04-20 17:47:48.344800,-25.14319
2021-04-20 17:47:48.360430,-23.79831
2021-04-20 17:47:48.376050,-22.65118
2021-04-20 17:47:48.391680,-22.11664
2021-04-20 17:47:48.407300,-22.79477
2021-04-20 17:47:48.422930,-25.27377
2021-04-20 17:47:48.438550,-29.98364
2021-04-20 17:47:48.454180,-36.86948
2021-04-20 17:47:48.469810,-45.32904
2021-04-20 17:47:48.485430,-54.21936
2021-04-20 17:47:48.501060,-62.09763
2021-04-20 17:47:48.516680,-67.5271
2021-04-20 17:47:48.532310,-69.52142
2021-04-20 17:47:48.547930,-67.94653
2021-04-20 17:47:48.563560,-63.71344
2021-04-20 17:47:48.579190,-58.56604
2021-04-20 17:47:48.594810,-54.55341
2021-04-20 17:47:48.610440,-53.21942
2021-04-20 17:47:48.626060,-54.95456
2021-04-20 17:47:48.641690,-58.71268
2021-04-20 17:47:48.672940,-62.77606
2021-04-20 17:47:48.688570,-57.78345
2021-04-20 17:47:48.704190,-45.62497
2021-04-20 17:47:48.719820,-25.84763
2021-04-20 17:47:48.735440,0.8840637
2021-04-20 17:47:48.751070,33.07608
2021-04-20 17:47:48.766690,68.86301
2021-04-20 17:47:48.782320,106.2312
2021-04-20 17:47:48.797950,143.2439
2021-04-20 17:47:48.813570,177.9848
2021-04-20 17:47:48.829200,208.6912
2021-04-20 17:47:48.844820,233.7903
2021-04-20 17:47:48.860450,252.1422
2021-04-20 17:47:48.876070,263.2322
2021-04-20 17:47:48.891700,267.2236
2021-04-20 17:47:48.907330,264.8911
2021-04-20 17:47:48.922950,257.3315
2021-04-20 17:47:48.938580,245.6154
2021-04-20 17:47:48.954200,230.6489
2021-04-20 17:47:48.969830,213.2227
2021-04-20 17:47:48.985450,194.2339
2021-04-20 17:47:49.001080,174.8362
2021-04-20 17:47:49.016710,156.3684
2021-04-20 17:47:49.032330,140.0108
2021-04-20 17:47:49.047960,126.3643
2021-04-20 17:47:49.063580,115.1493
2021-04-20 17:47:49.079210,105.3289
2021-04-20 17:47:49.094830,95.40875
2021-04-20 17:47:49.110460,83.97992
2021-04-20 17:47:49.126090,70.13739
2021-04-20 17:47:49.141710,53.64526
2021-04-20 17:47:49.157340,34.9425
2021-04-20 17:47:49.172960,14.84088
2021-04-20 17:47:49.188590,-5.748108
2021-04-20 17:47:49.204210,-26.07947
2021-04-20 17:47:49.219840,-45.65491
2021-04-20 17:47:49.235470,-64.23804
2021-04-20 17:47:49.251090,-81.7207
2021-04-20 17:47:49.266720,-98.02362
2021-04-20 17:47:49.282340,-112.9943
2021-04-20 17:47:49.297970,-126.3987
2021-04-20 17:47:49.313590,-138.0285
2021-04-20 17:47:49.329220,-147.8356
2021-04-20 17:47:49.344850,-156.1893
2021-04-20 17:47:49.360470,-163.9325
2021-04-20 17:47:49.376100,-172.2745
2021-04-20 17:47:49.391720,-182.4061
2021-04-20 17:47:49.407350,-194.9243
2021-04-20 17:47:49.422970,-209.407
2021-04-20 17:47:49.438600,-224.2665
2021-04-20 17:47:49.454230,-237.0775
2021-04-20 17:47:49.469850,-245.3132
2021-04-20 17:47:49.485480,-247.2244
2021-04-20 17:47:49.501100,-242.3684
2021-04-20 17:47:49.516730,-231.6863
2021-04-20 17:47:49.532350,-216.9771
2021-04-20 17:47:49.547980,-200.2138
2021-04-20 17:47:49.563610,-182.9066
2021-04-20 17:47:49.579230,-165.9729
2021-04-20 17:47:49.594860,-149.8499
2021-04-20 17:47:49.610480,-134.7991
2021-04-20 17:47:49.626110,-121.0667
2021-04-20 17:47:49.641730,-108.8375
2021-04-20 17:47:49.657360,-98.0769
2021-04-20 17:47:49.672990,-88.47162
2021-04-20 17:47:49.688610,-79.49371
2021-04-20 17:47:49.704240,-70.66888
2021-04-20 17:47:49.719860,-61.74384
2021-04-20 17:47:49.735490,-52.7782
2021-04-20 17:47:49.751110,-43.9939
2021-04-20 17:47:49.766740,-35.61316
2021-04-20 17:47:49.782370,-27.75653
2021-04-20 17:47:49.797990,-20.48676
2021-04-20 17:47:49.813620,-13.8927
2021-04-20 17:47:49.829240,-8.145569
2021-04-20 17:47:49.844870,-3.441895
2021-04-20 17:47:49.876120,2.66394
2021-04-20 17:47:49.891750,4.499695
2021-04-20 17:47:49.907370,6.019531
2021-04-20 17:47:49.923000,7.532227
2021-04-20 17:47:49.938620,9.117004
2021-04-20 17:47:49.954250,10.57941
2021-04-20 17:47:49.969870,11.5954
2021-04-20 17:47:49.985500,11.83289
2021-04-20 17:47:50.001130,11.16608
2021-04-20 17:47:50.016750,9.736084
2021-04-20 17:47:50.032380,7.929932
2021-04-20 17:47:50.048000,6.144287
2021-04-20 17:47:50.063630,4.590454
2021-04-20 17:47:50.079250,3.104553
2021-04-20 17:47:50.094880,1.193542
2021-04-20 17:47:50.110510,-1.860535
2021-04-20 17:47:50.126130,-6.746033
2021-04-20 17:47:50.141760,-13.94928
2021-04-20 17:47:50.157380,-23.57574
2021-04-20 17:47:50.173010,-35.19434
2021-04-20 17:47:50.188630,-47.7442
2021-04-20 17:47:50.204260,-59.54968
2021-04-20 17:47:50.219890,-68.48206
2021-04-20 17:47:50.235510,-72.45477
2021-04-20 17:47:50.251140,-69.99182
2021-04-20 17:47:50.266760,-60.76923
2021-04-20 17:47:50.282390,-45.74896
2021-04-20 17:47:50.298020,-26.95062
2021-04-20 17:47:50.313640,-6.828003
2021-04-20 17:47:50.329270,12.41412
2021-04-20 17:47:50.344890,29.34259
2021-04-20 17:47:50.360520,43.35278
2021-04-20 17:47:50.376140,54.57361
2021-04-20 17:47:50.391770,63.49347
2021-04-20 17:47:50.407400,70.65015
2021-04-20 17:47:50.423020,76.45142
2021-04-20 17:47:50.438650,81.08905
2021-04-20 17:47:50.454270,84.59961
2021-04-20 17:47:50.469900,86.92511
2021-04-20 17:47:50.485520,87.98816
2021-04-20 17:47:50.501150,87.75336
2021-04-20 17:47:50.516780,86.23224
2021-04-20 17:47:50.532400,83.51868
2021-04-20 17:47:50.548030,79.77905
2021-04-20 17:47:50.563650,75.26453
2021-04-20 17:47:50.579280,70.27545
2021-04-20 17:47:50.594900,65.09967
2021-04-20 17:47:50.610530,59.92792
2021-04-20 17:47:50.626160,54.84851
2021-04-20 17:47:50.641780,49.73163
2021-04-20 17:47:50.657410,44.35046
2021-04-20 17:47:50.673030,38.45825
2021-04-20 17:47:50.688660,31.93414
2021-04-20 17:47:50.704280,24.8183
2021-04-20 17:47:50.719910,17.36554
2021-04-20 17:47:50.735540,9.884094
2021-04-20 17:47:50.751160,2.586853
2021-04-20 17:47:50.766790,-4.430542
2021-04-20 17:47:50.782410,-11.26526
2021-04-20 17:47:50.798040,-18.08191
2021-04-20 17:47:50.813660,-25.0058
2021-04-20 17:47:50.829290,-32.02179
2021-04-20 17:47:50.844920,-38.93066
2021-04-20 17:47:50.860540,-45.4267
2021-04-20 17:47:50.876170,-51.23462
2021-04-20 17:47:50.891790,-56.21143
2021-04-20 17:47:50.907420,-60.48132
2021-04-20 17:47:50.923040,-64.45642
2021-04-20 17:47:50.938670,-68.78711
2021-04-20 17:47:50.969920,-81.06616
2021-04-20 17:47:50.985550,-89.32111
2021-04-20 17:47:51.001170,-97.94128
2021-04-20 17:47:51.016800,-105.0439
2021-04-20 17:47:51.032420,-108.2933
2021-04-20 17:47:51.048050,-105.5099
2021-04-20 17:47:51.063680,-95.45447
2021-04-20 17:47:51.079300,-78.29651
2021-04-20 17:47:51.094930,-55.6521
2021-04-20 17:47:51.110550,-30.15033
2021-04-20 17:47:51.126180,-4.743774
2021-04-20 17:47:51.141800,18.00403
2021-04-20 17:47:51.157430,36.37939
2021-04-20 17:47:51.173060,49.64151
2021-04-20 17:47:51.188680,57.91635
2021-04-20 17:47:51.204310,61.83951
2021-04-20 17:47:51.219930,62.34943
2021-04-20 17:47:51.235560,60.45148
2021-04-20 17:47:51.251180,57.09769
2021-04-20 17:47:51.266810,53.08273
2021-04-20 17:47:51.282440,49.0228
2021-04-20 17:47:51.298060,45.31396
2021-04-20 17:47:51.313690,42.12238
2021-04-20 17:47:51.329310,39.44815
2021-04-20 17:47:51.344940,37.13181
2021-04-20 17:47:51.360560,34.99393
2021-04-20 17:47:51.376190,32.79486
2021-04-20 17:47:51.391820,30.33694
2021-04-20 17:47:51.407440,27.48141
2021-04-20 17:47:51.423070,24.20801
2021-04-20 17:47:51.438690,20.63556
2021-04-20 17:47:51.454320,16.9772
2021-04-20 17:47:51.469940,13.42215
2021-04-20 17:47:51.485570,10.01877
2021-04-20 17:47:51.501200,6.587036
2021-04-20 17:47:51.516820,2.809082
2021-04-20 17:47:51.532450,-1.694885
2021-04-20 17:47:51.548070,-7.126129
2021-04-20 17:47:51.563700,-13.40109
2021-04-20 17:47:51.579320,-20.18658
2021-04-20 17:47:51.594950,-27.03635
2021-04-20 17:47:51.610580,-33.60144
2021-04-20 17:47:51.626200,-39.81131
2021-04-20 17:47:51.641830,-45.83691
2021-04-20 17:47:51.657450,-51.96457
2021-04-20 17:47:51.673080,-58.39105
2021-04-20 17:47:51.688700,-65.0528
2021-04-20 17:47:51.704330,-71.62744
2021-04-20 17:47:51.719960,-77.65598
2021-04-20 17:47:51.735580,-82.70496
2021-04-20 17:47:51.751210,-86.39847
2021-04-20 17:47:51.766830,-88.39066
2021-04-20 17:47:51.782460,-88.14163
2021-04-20 17:47:51.798080,-84.86057
2021-04-20 17:47:51.813710,-77.64008
2021-04-20 17:47:51.829340,-65.86841
2021-04-20 17:47:51.844960,-49.69321
2021-04-20 17:47:51.860590,-30.32562
2021-04-20 17:47:51.876210,-9.885712
2021-04-20 17:47:51.891840,9.159424
2021-04-20 17:47:51.907460,24.75742
2021-04-20 17:47:51.923090,35.89709
2021-04-20 17:47:51.938720,42.77031
2021-04-20 17:47:51.954340,46.48636
2021-04-20 17:47:51.969970,48.51404
2021-04-20 17:47:51.985590,50.14587
2021-04-20 17:47:52.001220,52.07111
2021-04-20 17:47:52.016840,54.37451
2021-04-20 17:47:52.032470,56.76379
2021-04-20 17:47:52.048100,58.74091
2021-04-20 17:47:52.063720,59.96584
2021-04-20 17:47:52.079350,60.3734
2021-04-20 17:47:52.094970,60.23468
2021-04-20 17:47:52.110600,60.06792
2021-04-20 17:47:52.126220,60.45193
2021-04-20 17:47:52.141850,61.80737
2021-04-20 17:47:52.157480,64.20255
2021-04-20 17:47:52.173100,67.25198
2021-04-20 17:47:52.188730,70.10167
2021-04-20 17:47:52.204350,71.70819
2021-04-20 17:47:52.219980,71.15602
2021-04-20 17:47:52.235600,67.96552
2021-04-20 17:47:52.251230,62.30616
2021-04-20 17:47:52.266860,54.89092
2021-04-20 17:47:52.282480,46.67928
2021-04-20 17:47:52.298110,38.40714
2021-04-20 17:47:52.313730,30.39024
2021-04-20 17:47:52.329360,22.43166
2021-04-20 17:47:52.344980,14.17298
2021-04-20 17:47:52.360610,5.446426
2021-04-20 17:47:52.376240,-3.44342
2021-04-20 17:47:52.391860,-11.85967
2021-04-20 17:47:52.407490,-19.10128
2021-04-20 17:47:52.423110,-24.80721
2021-04-20 17:47:52.438740,-29.19963
2021-04-20 17:47:52.454370,-32.94588
2021-04-20 17:47:52.469990,-36.90192
2021-04-20 17:47:52.485620,-41.7163
2021-04-20 17:47:52.501240,-47.73241
2021-04-20 17:47:52.516870,-55.03012
2021-04-20 17:47:52.532490,-63.31451
2021-04-20 17:47:52.548120,-71.94806
2021-04-20 17:47:52.563750,-79.78532
2021-04-20 17:47:52.579370,-85.18089
2021-04-20 17:47:52.595000,-86.255
2021-04-20 17:47:52.610620,-81.49138
2021-04-20 17:47:52.626250,-70.34659
2021-04-20 17:47:52.641870,-53.63907
2021-04-20 17:47:52.657500,-33.35504
2021-04-20 17:47:52.673130,-12.09183
2021-04-20 17:47:52.688750,7.715456
2021-04-20 17:47:52.704380,24.37707
2021-04-20 17:47:52.720000,37.15777
2021-04-20 17:47:52.735630,46.10215
2021-04-20 17:47:52.751250,51.73123
2021-04-20 17:47:52.766880,54.73541
2021-04-20 17:47:52.782510,55.87506
2021-04-20 17:47:52.798130,55.89639
2021-04-20 17:47:52.813760,55.55496
2021-04-20 17:47:52.829380,55.50654
2021-04-20 17:47:52.845010,56.18948
2021-04-20 17:47:52.860630,57.67335
2021-04-20 17:47:52.876260,59.68402
2021-04-20 17:47:52.891890,61.64038
2021-04-20 17:47:52.907510,62.87846
2021-04-20 17:47:52.923140,62.9026
2021-04-20 17:47:52.938760,61.50809
2021-04-20 17:47:52.954390,58.76739
2021-04-20 17:47:52.970010,54.94703
2021-04-20 17:47:52.985640,50.25189
2021-04-20 17:47:53.001270,44.71487
2021-04-20 17:47:53.016890,38.19471
2021-04-20 17:47:53.032520,30.52966
2021-04-20 17:47:53.048140,21.71622
2021-04-20 17:47:53.063770,11.94603
2021-04-20 17:47:53.079390,1.565063
2021-04-20 17:47:53.095020,-9.043945
2021-04-20 17:47:53.110650,-19.52826
2021-04-20 17:47:53.126270,-29.56654
2021-04-20 17:47:53.141900,-38.8286
2021-04-20 17:47:53.157520,-47.03647
2021-04-20 17:47:53.173150,-54.03304
2021-04-20 17:47:53.188770,-59.99545
2021-04-20 17:47:53.204400,-65.38452
2021-04-20 17:47:53.220030,-70.83957
2021-04-20 17:47:53.235650,-76.80841
2021-04-20 17:47:53.251280,-83.30582
2021-04-20 17:47:53.266900,-89.87094
2021-04-20 17:47:53.282530,-95.82796
2021-04-20 17:47:53.298150,-100.5625
2021-04-20 17:47:53.313780,-103.7375
2021-04-20 17:47:53.329410,-105.1363
2021-04-20 17:47:53.345030,-104.3839
2021-04-20 17:47:53.360660,-100.6748
2021-04-20 17:47:53.376280,-92.89388
2021-04-20 17:47:53.391910,-80.03741
2021-04-20 17:47:53.407530,-61.8477
2021-04-20 17:47:53.423160,-39.22719
2021-04-20 17:47:53.438790,-14.20886
2021-04-20 17:47:53.454410,10.49277
2021-04-20 17:47:53.470040,32.2478
2021-04-20 17:47:53.485660,49.19122
2021-04-20 17:47:53.501290,60.54459
2021-04-20 17:47:53.516910,66.57697
2021-04-20 17:47:53.532540,68.28671
2021-04-20 17:47:53.548170,66.93436
2021-04-20 17:47:53.563790,63.69064
2021-04-20 17:47:53.579420,59.44592
2021-04-20 17:47:53.595040,54.76477
2021-04-20 17:47:53.610670,49.99005
2021-04-20 17:47:53.626290,45.3111
2021-04-20 17:47:53.641920,40.87701
2021-04-20 17:47:53.657550,36.82758
2021-04-20 17:47:53.673170,33.40387
2021-04-20 17:47:53.688800,30.95132
2021-04-20 17:47:53.704420,29.94064
2021-04-20 17:47:53.720050,30.77582
2021-04-20 17:47:53.735670,33.64423
2021-04-20 17:47:53.751300,38.354
2021-04-20 17:47:53.766930,44.27972
2021-04-20 17:47:53.782550,50.46722
2021-04-20 17:47:53.798180,55.89877
2021-04-20 17:47:53.813800,59.72556
2021-04-20 17:47:53.829430,61.49637
2021-04-20 17:47:53.845050,61.10846
2021-04-20 17:47:53.860680,58.7597
2021-04-20 17:47:53.876310,54.77191
2021-04-20 17:47:53.891930,49.53116
2021-04-20 17:47:53.907560,43.49921
2021-04-20 17:47:53.923180,37.22406
2021-04-20 17:47:53.938810,31.31302
2021-04-20 17:47:53.954430,26.34332
2021-04-20 17:47:53.970060,22.68246
2021-04-20 17:47:53.985690,20.40482
2021-04-20 17:47:54.001310,19.30878
2021-04-20 17:47:54.016940,18.94754
2021-04-20 17:47:54.032560,18.80203
2021-04-20 17:47:54.048190,18.3223
2021-04-20 17:47:54.063810,17.01868
2021-04-20 17:47:54.079440,14.40601
2021-04-20 17:47:54.095070,10.15823
2021-04-20 17:47:54.110690,4.300903
2021-04-20 17:47:54.126320,-2.508789
2021-04-20 17:47:54.141940,-8.844299
2021-04-20 17:47:54.157570,-12.79941
2021-04-20 17:47:54.173190,-12.52582
2021-04-20 17:47:54.188820,-6.96051
2021-04-20 17:47:54.204450,3.736542
2021-04-20 17:47:54.220070,18.20462
2021-04-20 17:47:54.235700,34.41409
2021-04-20 17:47:54.251320,50.40958
2021-04-20 17:47:54.266950,64.77301
2021-04-20 17:47:54.282570,76.78558
2021-04-20 17:47:54.298200,86.13486
2021-04-20 17:47:54.313830,92.5733
2021-04-20 17:47:54.329450,95.81931
2021-04-20 17:47:54.345080,95.67944
2021-04-20 17:47:54.360700,92.36441
2021-04-20 17:47:54.376330,86.57031
2021-04-20 17:47:54.391950,79.37354
2021-04-20 17:47:54.407580,71.84879
2021-04-20 17:47:54.423210,64.79333
2021-04-20 17:47:54.438830,58.55048
2021-04-20 17:47:54.454460,53.1322
2021-04-20 17:47:54.470080,48.38687
2021-04-20 17:47:54.485710,44.11258
2021-04-20 17:47:54.501330,40.05118
2021-04-20 17:47:54.516960,35.86005
2021-04-20 17:47:54.532590,31.13937
2021-04-20 17:47:54.548210,25.55038
2021-04-20 17:47:54.563840,19.03421
2021-04-20 17:47:54.579460,11.84848
2021-04-20 17:47:54.595090,4.489838
2021-04-20 17:47:54.610710,-2.554871
2021-04-20 17:47:54.626340,-9.05246
2021-04-20 17:47:54.641970,-15.13803
2021-04-20 17:47:54.657590,-21.21036
2021-04-20 17:47:54.673220,-27.70166
2021-04-20 17:47:54.688840,-34.80899
2021-04-20 17:47:54.704470,-42.41498
2021-04-20 17:47:54.720090,-50.07401
2021-04-20 17:47:54.735720,-57.2316
2021-04-20 17:47:54.751350,-63.38867
2021-04-20 17:47:54.766970,-68.27621
2021-04-20 17:47:54.782600,-71.90869
2021-04-20 17:47:54.798220,-74.61835
2021-04-20 17:47:54.813850,-77.00385
2021-04-20 17:47:54.829470,-79.80682
2021-04-20 17:47:54.845100,-83.8201
2021-04-20 17:47:54.860730,-89.63773
2021-04-20 17:47:54.876350,-97.36237
2021-04-20 17:47:54.891980,-106.4473
2021-04-20 17:47:54.907600,-115.4972
2021-04-20 17:47:54.923230,-122.4731
2021-04-20 17:47:54.938850,-125.1301
2021-04-20 17:47:54.954480,-121.72
2021-04-20 17:47:54.970110,-111.5434
2021-04-20 17:47:54.985730,-95.33737
2021-04-20 17:47:55.001360,-75.10941
2021-04-20 17:47:55.016980,-53.59619
2021-04-20 17:47:55.032610,-33.47299
2021-04-20 17:47:55.048230,-16.7204
2021-04-20 17:47:55.063860,-4.306152
2021-04-20 17:47:55.079490,3.698761
2021-04-20 17:47:55.095110,7.726044
2021-04-20 17:47:55.110740,8.284821
2021-04-20 17:47:55.126360,5.781799
2021-04-20 17:47:55.141990,0.5845642
2021-04-20 17:47:55.157620,-6.747955
2021-04-20 17:47:55.173240,-15.27158
2021-04-20 17:47:55.188870,-23.7236
2021-04-20 17:47:55.204490,-30.80322
2021-04-20 17:47:55.220120,-35.52209
2021-04-20 17:47:55.235740,-37.57083
2021-04-20 17:47:55.251370,-37.30902
2021-04-20 17:47:55.267000,-35.57925
2021-04-20 17:47:55.282620,-33.26898
2021-04-20 17:47:55.298250,-30.94489
2021-04-20 17:47:55.313870,-28.65353
2021-04-20 17:47:55.329500,-26.00583
2021-04-20 17:47:55.345120,-22.45081
2021-04-20 17:47:55.360750,-17.68713
2021-04-20 17:47:55.376380,-11.92172
2021-04-20 17:47:55.392000,-5.895844
2021-04-20 17:47:55.407630,-0.6299133
2021-04-20 17:47:55.423250,2.994446
2021-04-20 17:47:55.438880,4.64682
2021-04-20 17:47:55.454500,4.687408
2021-04-20 17:47:55.470130,4.05368
2021-04-20 17:47:55.485760,4.022675
2021-04-20 17:47:55.501380,5.857239
2021-04-20 17:47:55.517010,10.55499
2021-04-20 17:47:55.532630,18.64899
2021-04-20 17:47:55.548260,30.00641
2021-04-20 17:47:55.563880,43.69958
2021-04-20 17:47:55.579510,57.94983
2021-04-20 17:47:55.595140,70.41986
2021-04-20 17:47:55.610760,78.75378
2021-04-20 17:47:55.626390,81.38019
2021-04-20 17:47:55.642010,78.15125
2021-04-20 17:47:55.657640,70.66577
2021-04-20 17:47:55.673260,61.98328
2021-04-20 17:47:55.688890,55.8172
2021-04-20 17:47:55.704520,55.44666
2021-04-20 17:47:55.720140,62.71619
2021-04-20 17:47:55.735770,77.48462
2021-04-20 17:47:55.751390,97.79169
2021-04-20 17:47:55.767020,120.5671
2021-04-20 17:47:55.782640,142.6966
2021-04-20 17:47:55.798270,161.9008
2021-04-20 17:47:55.813900,177.1731
