Datetime,value
BVP
2021-04-26 15:24:32.094600,10.93447
2021-04-26 15:24:32.110230,7.786522
2021-04-26 15:24:32.125860,4.501244
2021-04-26 15:24:32.141480,1.288734
2021-04-26 15:24:32.157110,-1.681511
2021-04-26 15:24:32.172730,-4.421005
2021-04-26 15:24:32.188360,-7.109955
2021-04-26 15:24:32.203980,-10.04067
2021-04-26 15:24:32.219610,-13.52806
2021-04-26 15:24:32.235240,-17.76594
2021-04-26 15:24:32.250860,-22.75363
2021-04-26 15:24:32.266490,-28.26138
2021-04-26 15:24:32.282110,-33.82895
2021-04-26 15:24:32.297740,-38.82655
2021-04-26 15:24:32.313360,-42.52922
2021-04-26 15:24:32.328990,-44.21781
2021-04-26 15:24:32.344620,-43.39611
2021-04-26 15:24:32.360240,-39.92103
2021-04-26 15:24:32.375870,-34.01978
2021-04-26 15:24:32.391490,-26.25784
2021-04-26 15:24:32.407120,-17.35751
2021-04-26 15:24:32.422740,-8.060509
2021-04-26 15:24:32.438370,0.9943695
2021-04-26 15:24:32.454000,9.255989
2021-04-26 15:24:32.469620,16.29122
2021-04-26 15:24:32.485250,21.7663
2021-04-26 15:24:32.500870,25.4771
2021-04-26 15:24:32.516500,27.39874
2021-04-26 15:24:32.532120,27.72469
2021-04-26 15:24:32.547750,26.83434
2021-04-26 15:24:32.563380,25.23045
2021-04-26 15:24:32.579000,23.42605
2021-04-26 15:24:32.594630,21.81715
2021-04-26 15:24:32.610250,20.69505
2021-04-26 15:24:32.625880,20.17813
2021-04-26 15:24:32.641500,20.23724
2021-04-26 15:24:32.657130,20.72641
2021-04-26 15:24:32.672760,21.34838
2021-04-26 15:24:32.688380,21.69951
2021-04-26 15:24:32.704010,21.3519
2021-04-26 15:24:32.719630,19.96794
2021-04-26 15:24:32.735260,17.41178
2021-04-26 15:24:32.750880,13.81195
2021-04-26 15:24:32.766510,9.545525
2021-04-26 15:24:32.782140,5.136711
2021-04-26 15:24:32.797760,1.069855
2021-04-26 15:24:32.813390,-2.34269
2021-04-26 15:24:32.829010,-5.054878
2021-04-26 15:24:32.844640,-7.298157
2021-04-26 15:24:32.860260,-9.509743
2021-04-26 15:24:32.875890,-12.24208
2021-04-26 15:24:32.891520,-15.92389
2021-04-26 15:24:32.907140,-20.63308
2021-04-26 15:24:32.922770,-25.9123
2021-04-26 15:24:32.938390,-30.76582
2021-04-26 15:24:32.954020,-33.9295
2021-04-26 15:24:32.969640,-34.33052
2021-04-26 15:24:32.985270,-31.52659
2021-04-26 15:24:33.000900,-25.86973
2021-04-26 15:24:33.016520,-18.36515
2021-04-26 15:24:33.032150,-10.30612
2021-04-26 15:24:33.047770,-2.828003
2021-04-26 15:24:33.063400,3.354233
2021-04-26 15:24:33.079020,8.019188
2021-04-26 15:24:33.094650,11.3027
2021-04-26 15:24:33.110280,13.50336
2021-04-26 15:24:33.125900,14.9202
2021-04-26 15:24:33.141530,15.72266
2021-04-26 15:24:33.157150,15.93909
2021-04-26 15:24:33.172780,15.49341
2021-04-26 15:24:33.188400,14.32651
2021-04-26 15:24:33.204030,12.51604
2021-04-26 15:24:33.219660,10.32991
2021-04-26 15:24:33.235280,8.160175
2021-04-26 15:24:33.250910,6.353802
2021-04-26 15:24:33.266530,5.019028
2021-04-26 15:24:33.282160,3.992504
2021-04-26 15:24:33.297780,2.907551
2021-04-26 15:24:33.313410,1.391228
2021-04-26 15:24:33.329040,-0.7134819
2021-04-26 15:24:33.344660,-3.363327
2021-04-26 15:24:33.360290,-6.360409
2021-04-26 15:24:33.375910,-9.53804
2021-04-26 15:24:33.391540,-12.8321
2021-04-26 15:24:33.407160,-16.32107
2021-04-26 15:24:33.422790,-20.08703
2021-04-26 15:24:33.438420,-24.16384
2021-04-26 15:24:33.454040,-28.53204
2021-04-26 15:24:33.469670,-33.09099
2021-04-26 15:24:33.485290,-37.75837
2021-04-26 15:24:33.500920,-42.36285
2021-04-26 15:24:33.516540,-46.58175
2021-04-26 15:24:33.532170,-49.8211
2021-04-26 15:24:33.547800,-51.27186
2021-04-26 15:24:33.563420,-50.17265
2021-04-26 15:24:33.579050,-46.09034
2021-04-26 15:24:33.594670,-39.15786
2021-04-26 15:24:33.610300,-30.08115
2021-04-26 15:24:33.625930,-19.90953
2021-04-26 15:24:33.641550,-9.669994
2021-04-26 15:24:33.657180,-0.1251602
2021-04-26 15:24:33.672800,8.327305
2021-04-26 15:24:33.688430,15.47976
2021-04-26 15:24:33.704050,21.12686
2021-04-26 15:24:33.719680,24.97779
2021-04-26 15:24:33.735310,26.74424
2021-04-26 15:24:33.750930,26.38253
2021-04-26 15:24:33.766560,24.18782
2021-04-26 15:24:33.782180,20.84436
2021-04-26 15:24:33.797810,17.20794
2021-04-26 15:24:33.813430,14.04794
2021-04-26 15:24:33.829060,11.83358
2021-04-26 15:24:33.844690,10.60352
2021-04-26 15:24:33.860310,10.03503
2021-04-26 15:24:33.875940,9.584068
2021-04-26 15:24:33.891560,8.750141
2021-04-26 15:24:33.907190,7.268417
2021-04-26 15:24:33.922810,5.273888
2021-04-26 15:24:33.938440,3.230705
2021-04-26 15:24:33.954070,1.677536
2021-04-26 15:24:33.969690,0.9791336
2021-04-26 15:24:33.985320,1.056946
2021-04-26 15:24:34.000940,1.438889
2021-04-26 15:24:34.016570,1.376167
2021-04-26 15:24:34.032190,0.1428986
2021-04-26 15:24:34.047820,-2.769653
2021-04-26 15:24:34.063450,-7.480446
2021-04-26 15:24:34.079070,-13.69094
2021-04-26 15:24:34.094700,-20.67803
2021-04-26 15:24:34.110320,-27.35357
2021-04-26 15:24:34.125950,-32.51386
2021-04-26 15:24:34.141570,-35.03279
2021-04-26 15:24:34.157200,-34.2888
2021-04-26 15:24:34.172830,-30.31536
2021-04-26 15:24:34.188450,-23.7977
2021-04-26 15:24:34.204080,-15.7765
2021-04-26 15:24:34.219700,-7.267982
2021-04-26 15:24:34.235330,1.035034
2021-04-26 15:24:34.250950,8.800972
2021-04-26 15:24:34.266580,15.83706
2021-04-26 15:24:34.282210,21.88184
2021-04-26 15:24:34.297830,26.49133
2021-04-26 15:24:34.313460,29.17451
2021-04-26 15:24:34.329080,29.637
2021-04-26 15:24:34.344710,28.00941
2021-04-26 15:24:34.360330,24.90162
2021-04-26 15:24:34.375960,21.22842
2021-04-26 15:24:34.391590,17.95664
2021-04-26 15:24:34.407210,15.76331
2021-04-26 15:24:34.422840,14.9208
2021-04-26 15:24:34.438460,15.20248
2021-04-26 15:24:34.454090,16.05579
2021-04-26 15:24:34.469710,16.82849
2021-04-26 15:24:34.485340,16.9836
2021-04-26 15:24:34.500970,16.24239
2021-04-26 15:24:34.516590,14.58292
2021-04-26 15:24:34.532220,12.19314
2021-04-26 15:24:34.547840,9.238663
2021-04-26 15:24:34.563470,5.911774
2021-04-26 15:24:34.579090,2.328934
2021-04-26 15:24:34.594720,-1.412537
2021-04-26 15:24:34.610350,-5.268463
2021-04-26 15:24:34.625970,-9.320442
2021-04-26 15:24:34.641600,-13.71914
2021-04-26 15:24:34.657220,-18.56073
2021-04-26 15:24:34.672850,-23.64937
2021-04-26 15:24:34.688470,-28.37231
2021-04-26 15:24:34.704100,-31.76095
2021-04-26 15:24:34.719730,-32.83504
2021-04-26 15:24:34.735350,-31.0111
2021-04-26 15:24:34.750980,-26.34775
2021-04-26 15:24:34.766600,-19.51621
2021-04-26 15:24:34.782230,-11.49525
2021-04-26 15:24:34.797850,-3.158035
2021-04-26 15:24:34.813480,4.934746
2021-04-26 15:24:34.829110,12.42285
2021-04-26 15:24:34.844730,18.98564
2021-04-26 15:24:34.860360,24.15154
2021-04-26 15:24:34.875980,27.37497
2021-04-26 15:24:34.891610,28.35545
2021-04-26 15:24:34.907230,27.2272
2021-04-26 15:24:34.922860,24.65268
2021-04-26 15:24:34.938490,21.56544
2021-04-26 15:24:34.954110,18.84297
2021-04-26 15:24:34.969740,16.98757
2021-04-26 15:24:34.985360,16.08101
2021-04-26 15:24:35.000990,15.88808
2021-04-26 15:24:35.016610,16.03265
2021-04-26 15:24:35.032240,16.20532
2021-04-26 15:24:35.047870,16.15507
2021-04-26 15:24:35.063490,15.73915
2021-04-26 15:24:35.079120,14.84755
2021-04-26 15:24:35.094740,13.45896
2021-04-26 15:24:35.110370,11.61883
2021-04-26 15:24:35.125990,9.426186
2021-04-26 15:24:35.141620,6.922142
2021-04-26 15:24:35.157250,4.038818
2021-04-26 15:24:35.172870,0.6206818
2021-04-26 15:24:35.188500,-3.471275
2021-04-26 15:24:35.204120,-8.267975
2021-04-26 15:24:35.219750,-13.6153
2021-04-26 15:24:35.235370,-19.18563
2021-04-26 15:24:35.251000,-24.55205
2021-04-26 15:24:35.266630,-29.21019
2021-04-26 15:24:35.282250,-32.63251
2021-04-26 15:24:35.297880,-34.30717
2021-04-26 15:24:35.313500,-33.77251
2021-04-26 15:24:35.329130,-30.73608
2021-04-26 15:24:35.344750,-25.1322
2021-04-26 15:24:35.360380,-17.22631
2021-04-26 15:24:35.376010,-7.643356
2021-04-26 15:24:35.391630,2.708298
2021-04-26 15:24:35.407260,12.72359
2021-04-26 15:24:35.422880,21.36158
2021-04-26 15:24:35.438510,27.88261
2021-04-26 15:24:35.454130,32.11637
2021-04-26 15:24:35.469760,34.43369
2021-04-26 15:24:35.485390,35.58259
2021-04-26 15:24:35.501010,36.36695
2021-04-26 15:24:35.516640,37.33217
2021-04-26 15:24:35.532260,38.65453
2021-04-26 15:24:35.547890,40.20178
2021-04-26 15:24:35.563510,41.65337
2021-04-26 15:24:35.579140,42.48162
2021-04-26 15:24:35.594770,41.87611
2021-04-26 15:24:35.610390,38.81919
2021-04-26 15:24:35.626020,32.43238
2021-04-26 15:24:35.641640,22.50558
2021-04-26 15:24:35.657270,10.07117
2021-04-26 15:24:35.672890,-2.646782
2021-04-26 15:24:35.688520,-12.83365
2021-04-26 15:24:35.704150,-18.07729
2021-04-26 15:24:35.719770,-17.35564
2021-04-26 15:24:35.735400,-11.43433
2021-04-26 15:24:35.751020,-2.644501
2021-04-26 15:24:35.766650,6.011307
2021-04-26 15:24:35.782270,11.91816
2021-04-26 15:24:35.797900,13.64111
2021-04-26 15:24:35.813530,11.09962
2021-04-26 15:24:35.829150,5.273521
2021-04-26 15:24:35.844780,-2.377495
2021-04-26 15:24:35.860400,-10.42729
2021-04-26 15:24:35.876030,-17.72693
2021-04-26 15:24:35.891650,-23.40171
2021-04-26 15:24:35.907280,-26.73685
2021-04-26 15:24:35.922910,-27.22192
2021-04-26 15:24:35.938530,-24.75338
2021-04-26 15:24:35.954160,-19.79124
2021-04-26 15:24:35.969780,-13.35656
2021-04-26 15:24:35.985410,-6.61264
2021-04-26 15:24:36.001030,-0.3272095
2021-04-26 15:24:36.016660,5.415237
2021-04-26 15:24:36.032290,10.90555
2021-04-26 15:24:36.047910,16.22032
2021-04-26 15:24:36.063540,20.72381
2021-04-26 15:24:36.079160,23.23799
2021-04-26 15:24:36.094790,22.8043
2021-04-26 15:24:36.110410,19.58518
2021-04-26 15:24:36.126040,15.05847
2021-04-26 15:24:36.141670,11.24501
2021-04-26 15:24:36.157290,9.601242
2021-04-26 15:24:36.172920,10.13596
2021-04-26 15:24:36.188540,11.49432
2021-04-26 15:24:36.204170,11.90394
2021-04-26 15:24:36.219790,10.28279
2021-04-26 15:24:36.235420,6.845509
2021-04-26 15:24:36.251050,2.611984
2021-04-26 15:24:36.266670,-1.565765
2021-04-26 15:24:36.282300,-5.776501
2021-04-26 15:24:36.297920,-10.97874
2021-04-26 15:24:36.313550,-18.23188
2021-04-26 15:24:36.329180,-27.68262
2021-04-26 15:24:36.344800,-38.18358
2021-04-26 15:24:36.360430,-47.64283
2021-04-26 15:24:36.376050,-53.96207
2021-04-26 15:24:36.391680,-56.00097
2021-04-26 15:24:36.407300,-53.9882
2021-04-26 15:24:36.422930,-49.35828
2021-04-26 15:24:36.438560,-44.10749
2021-04-26 15:24:36.454180,-40.05747
2021-04-26 15:24:36.469810,-38.24624
2021-04-26 15:24:36.485430,-38.76117
2021-04-26 15:24:36.501060,-40.81412
2021-04-26 15:24:36.516680,-43.06705
2021-04-26 15:24:36.532310,-44.08309
2021-04-26 15:24:36.547940,-42.56258
2021-04-26 15:24:36.563560,-37.50292
2021-04-26 15:24:36.579190,-28.23845
2021-04-26 15:24:36.594810,-14.54869
2021-04-26 15:24:36.610440,3.108266
2021-04-26 15:24:36.641690,43.43395
2021-04-26 15:24:36.657320,60.28494
2021-04-26 15:24:36.672940,70.76797
2021-04-26 15:24:36.688570,73.15014
2021-04-26 15:24:36.704190,67.84203
2021-04-26 15:24:36.719820,57.30642
2021-04-26 15:24:36.735440,45.08327
2021-04-26 15:24:36.751070,34.32595
2021-04-26 15:24:36.766700,26.66583
2021-04-26 15:24:36.782320,21.93277
2021-04-26 15:24:36.797950,18.80933
2021-04-26 15:24:36.813570,15.81424
2021-04-26 15:24:36.829200,12.08694
2021-04-26 15:24:36.844820,7.518938
2021-04-26 15:24:36.860450,2.357685
2021-04-26 15:24:36.876080,-3.289831
2021-04-26 15:24:36.891700,-9.549671
2021-04-26 15:24:36.907330,-16.53779
2021-04-26 15:24:36.922950,-23.88873
2021-04-26 15:24:36.938580,-30.55093
2021-04-26 15:24:36.954200,-35.10782
2021-04-26 15:24:36.969830,-36.38013
2021-04-26 15:24:36.985460,-34.13749
2021-04-26 15:24:37.001080,-29.35228
2021-04-26 15:24:37.016710,-23.92161
2021-04-26 15:24:37.032330,-19.90533
2021-04-26 15:24:37.047960,-18.71776
2021-04-26 15:24:37.063580,-20.56701
2021-04-26 15:24:37.079210,-24.37379
2021-04-26 15:24:37.094840,-28.28204
2021-04-26 15:24:37.110460,-30.34884
2021-04-26 15:24:37.126090,-29.29169
2021-04-26 15:24:37.141710,-24.85964
2021-04-26 15:24:37.157340,-17.7912
2021-04-26 15:24:37.172960,-9.35902
2021-04-26 15:24:37.188590,-0.8569856
2021-04-26 15:24:37.204220,6.826316
2021-04-26 15:24:37.219840,13.32999
2021-04-26 15:24:37.235470,18.68103
2021-04-26 15:24:37.251090,22.99148
2021-04-26 15:24:37.266720,26.20952
2021-04-26 15:24:37.282340,28.06121
2021-04-26 15:24:37.297970,28.14562
2021-04-26 15:24:37.313600,26.22206
2021-04-26 15:24:37.329220,22.41418
2021-04-26 15:24:37.344850,17.31236
2021-04-26 15:24:37.360470,11.86468
2021-04-26 15:24:37.376100,7.065668
2021-04-26 15:24:37.391720,3.65535
2021-04-26 15:24:37.407350,1.866462
2021-04-26 15:24:37.422980,1.366776
2021-04-26 15:24:37.438600,1.448623
2021-04-26 15:24:37.454230,1.392725
2021-04-26 15:24:37.469850,0.7110682
2021-04-26 15:24:37.485480,-0.7115121
2021-04-26 15:24:37.501100,-2.683793
2021-04-26 15:24:37.516730,-4.961468
2021-04-26 15:24:37.532360,-7.432487
2021-04-26 15:24:37.547980,-10.16018
2021-04-26 15:24:37.563610,-13.32577
2021-04-26 15:24:37.579230,-17.09789
2021-04-26 15:24:37.594860,-21.50681
2021-04-26 15:24:37.610480,-26.44962
2021-04-26 15:24:37.626110,-31.63734
2021-04-26 15:24:37.641740,-36.60089
2021-04-26 15:24:37.657360,-40.70263
2021-04-26 15:24:37.672990,-43.22268
2021-04-26 15:24:37.688610,-43.49789
2021-04-26 15:24:37.704240,-41.14314
2021-04-26 15:24:37.719860,-36.21445
2021-04-26 15:24:37.735490,-29.17108
2021-04-26 15:24:37.751120,-20.76134
2021-04-26 15:24:37.766740,-11.77182
2021-04-26 15:24:37.782370,-2.793056
2021-04-26 15:24:37.797990,5.778391
2021-04-26 15:24:37.813620,13.6221
2021-04-26 15:24:37.829240,20.37249
2021-04-26 15:24:37.844870,25.60328
2021-04-26 15:24:37.860500,28.97695
2021-04-26 15:24:37.876120,30.44336
2021-04-26 15:24:37.891750,30.38269
2021-04-26 15:24:37.907370,29.59226
2021-04-26 15:24:37.923000,28.95207
2021-04-26 15:24:37.938620,29.1032
2021-04-26 15:24:37.954250,30.23585
2021-04-26 15:24:37.969880,32.00454
2021-04-26 15:24:37.985500,33.71484
2021-04-26 15:24:38.001130,34.60202
2021-04-26 15:24:38.016750,34.11965
2021-04-26 15:24:38.032380,32.06792
2021-04-26 15:24:38.048000,28.64778
2021-04-26 15:24:38.063630,24.3061
2021-04-26 15:24:38.079260,19.52098
2021-04-26 15:24:38.094880,14.6256
2021-04-26 15:24:38.110510,9.706607
2021-04-26 15:24:38.126130,4.661611
2021-04-26 15:24:38.141760,-0.7028408
2021-04-26 15:24:38.157380,-6.533468
2021-04-26 15:24:38.173010,-12.89442
2021-04-26 15:24:38.188640,-19.681
2021-04-26 15:24:38.204260,-26.60809
2021-04-26 15:24:38.219890,-33.19777
2021-04-26 15:24:38.235510,-38.72292
2021-04-26 15:24:38.251140,-42.30487
2021-04-26 15:24:38.266760,-43.12057
2021-04-26 15:24:38.282390,-40.64307
2021-04-26 15:24:38.298020,-34.8839
2021-04-26 15:24:38.313640,-26.47883
2021-04-26 15:24:38.329270,-16.53799
2021-04-26 15:24:38.344890,-6.332454
2021-04-26 15:24:38.360520,3.080303
2021-04-26 15:24:38.376140,11.07003
2021-04-26 15:24:38.391770,17.46713
2021-04-26 15:24:38.407400,22.43827
2021-04-26 15:24:38.423020,26.2753
2021-04-26 15:24:38.438650,29.24566
2021-04-26 15:24:38.454270,31.48148
2021-04-26 15:24:38.469900,33.01037
2021-04-26 15:24:38.485530,33.77144
2021-04-26 15:24:38.501150,33.72465
2021-04-26 15:24:38.516780,32.93115
2021-04-26 15:24:38.532400,31.55801
2021-04-26 15:24:38.548030,29.89121
2021-04-26 15:24:38.563650,28.20224
2021-04-26 15:24:38.579280,26.65139
2021-04-26 15:24:38.594910,25.23469
2021-04-26 15:24:38.610530,23.79191
2021-04-26 15:24:38.626160,22.10656
2021-04-26 15:24:38.641780,19.98524
2021-04-26 15:24:38.657410,17.28141
2021-04-26 15:24:38.673030,13.81134
2021-04-26 15:24:38.688660,9.339848
2021-04-26 15:24:38.704290,3.637454
2021-04-26 15:24:38.719910,-3.385692
2021-04-26 15:24:38.735540,-11.55515
2021-04-26 15:24:38.751160,-20.39987
2021-04-26 15:24:38.766790,-29.30297
2021-04-26 15:24:38.782410,-37.71775
2021-04-26 15:24:38.798040,-45.29645
2021-04-26 15:24:38.813670,-51.9038
2021-04-26 15:24:38.829290,-57.39846
2021-04-26 15:24:38.844920,-61.44274
2021-04-26 15:24:38.860540,-63.50032
2021-04-26 15:24:38.876170,-63.00863
2021-04-26 15:24:38.891790,-59.67513
2021-04-26 15:24:38.907420,-53.75019
2021-04-26 15:24:38.923050,-46.00427
2021-04-26 15:24:38.938670,-37.47107
2021-04-26 15:24:38.954300,-29.10037
2021-04-26 15:24:38.969920,-21.45119
2021-04-26 15:24:38.985550,-14.66751
2021-04-26 15:24:39.001170,-8.609598
2021-04-26 15:24:39.016800,-3.074277
2021-04-26 15:24:39.032430,2.021756
2021-04-26 15:24:39.048050,6.632677
2021-04-26 15:24:39.063680,10.60886
2021-04-26 15:24:39.079300,13.82672
2021-04-26 15:24:39.094930,16.2661
2021-04-26 15:24:39.110550,18.05394
2021-04-26 15:24:39.126180,19.43191
2021-04-26 15:24:39.141810,20.67749
2021-04-26 15:24:39.157430,22.02183
2021-04-26 15:24:39.173060,23.56066
2021-04-26 15:24:39.188680,25.2367
2021-04-26 15:24:39.204310,26.82551
2021-04-26 15:24:39.219930,27.99874
2021-04-26 15:24:39.235560,28.45682
2021-04-26 15:24:39.251190,28.11312
2021-04-26 15:24:39.266810,27.16331
2021-04-26 15:24:39.282440,26.09349
2021-04-26 15:24:39.298060,25.47391
2021-04-26 15:24:39.313690,25.67247
2021-04-26 15:24:39.329310,26.61179
2021-04-26 15:24:39.344940,27.69112
2021-04-26 15:24:39.360570,27.95376
2021-04-26 15:24:39.376190,26.38428
2021-04-26 15:24:39.391820,22.28246
2021-04-26 15:24:39.407440,15.49061
2021-04-26 15:24:39.423070,6.500395
2021-04-26 15:24:39.438690,-3.622446
2021-04-26 15:24:39.454320,-13.44007
2021-04-26 15:24:39.469950,-21.40325
2021-04-26 15:24:39.485570,-26.21223
2021-04-26 15:24:39.501200,-27.09454
2021-04-26 15:24:39.516820,-24.00904
2021-04-26 15:24:39.532450,-17.63664
2021-04-26 15:24:39.548070,-9.176256
2021-04-26 15:24:39.563700,-0.001596451
2021-04-26 15:24:39.579330,8.654902
2021-04-26 15:24:39.594950,15.8737
2021-04-26 15:24:39.610580,21.08329
2021-04-26 15:24:39.626200,23.97101
2021-04-26 15:24:39.641830,24.47392
2021-04-26 15:24:39.657450,22.75024
2021-04-26 15:24:39.673080,19.21891
2021-04-26 15:24:39.688710,14.53196
2021-04-26 15:24:39.704330,9.474147
2021-04-26 15:24:39.719960,4.781387
2021-04-26 15:24:39.735580,0.9559393
2021-04-26 15:24:39.751210,-1.791292
2021-04-26 15:24:39.766830,-3.567296
2021-04-26 15:24:39.782460,-4.714478
2021-04-26 15:24:39.798090,-5.737156
2021-04-26 15:24:39.813710,-7.163129
2021-04-26 15:24:39.829340,-9.451878
2021-04-26 15:24:39.844960,-12.95855
2021-04-26 15:24:39.860590,-17.89664
2021-04-26 15:24:39.876210,-24.22769
2021-04-26 15:24:39.891840,-31.42731
2021-04-26 15:24:39.907470,-38.3121
2021-04-26 15:24:39.923090,-43.08458
2021-04-26 15:24:39.938720,-43.86011
2021-04-26 15:24:39.954340,-39.40948
2021-04-26 15:24:39.969970,-29.91017
2021-04-26 15:24:39.985590,-17.16451
2021-04-26 15:24:40.001220,-4.085579
2021-04-26 15:24:40.016850,6.369317
2021-04-26 15:24:40.032470,12.31188
2021-04-26 15:24:40.063720,11.20793
2021-04-26 15:24:40.079350,7.391862
2021-04-26 15:24:40.094970,3.878381
2021-04-26 15:24:40.110600,1.898136
2021-04-26 15:24:40.126230,2.100425
2021-04-26 15:24:40.141850,4.826531
2021-04-26 15:24:40.157480,10.26034
2021-04-26 15:24:40.173100,18.26704
2021-04-26 15:24:40.188730,28.10864
2021-04-26 15:24:40.204350,38.41404
2021-04-26 15:24:40.219980,47.49843
2021-04-26 15:24:40.235610,53.95757
2021-04-26 15:24:40.251230,57.19738
2021-04-26 15:24:40.266860,57.5305
2021-04-26 15:24:40.282480,55.93408
2021-04-26 15:24:40.298110,53.47624
2021-04-26 15:24:40.313730,50.83311
2021-04-26 15:24:40.329360,48.12393
2021-04-26 15:24:40.344990,45.10778
2021-04-26 15:24:40.360610,41.49631
2021-04-26 15:24:40.376240,37.23959
2021-04-26 15:24:40.391860,32.57572
2021-04-26 15:24:40.407490,27.90591
2021-04-26 15:24:40.423110,23.61764
2021-04-26 15:24:40.438740,19.94858
2021-04-26 15:24:40.454370,16.89552
2021-04-26 15:24:40.469990,14.24101
2021-04-26 15:24:40.485620,11.60792
2021-04-26 15:24:40.501240,8.533098
2021-04-26 15:24:40.516870,4.656334
2021-04-26 15:24:40.532490,-0.132576
2021-04-26 15:24:40.548120,-5.641201
2021-04-26 15:24:40.563750,-11.40812
2021-04-26 15:24:40.579370,-16.92122
2021-04-26 15:24:40.595000,-21.88149
2021-04-26 15:24:40.610620,-26.31045
2021-04-26 15:24:40.626250,-30.55988
2021-04-26 15:24:40.641870,-35.11227
2021-04-26 15:24:40.657500,-40.24099
2021-04-26 15:24:40.673130,-45.77776
2021-04-26 15:24:40.688750,-51.01239
2021-04-26 15:24:40.704380,-54.88519
2021-04-26 15:24:40.720000,-56.34438
2021-04-26 15:24:40.735630,-54.72211
2021-04-26 15:24:40.751260,-49.95207
2021-04-26 15:24:40.766880,-42.60136
2021-04-26 15:24:40.782510,-33.62257
2021-04-26 15:24:40.798130,-24.02644
2021-04-26 15:24:40.813760,-14.64591
2021-04-26 15:24:40.829380,-6.018639
2021-04-26 15:24:40.845010,1.520432
2021-04-26 15:24:40.860640,7.700256
2021-04-26 15:24:40.876260,12.25194
2021-04-26 15:24:40.891890,14.97037
2021-04-26 15:24:40.907510,15.84534
2021-04-26 15:24:40.923140,15.15273
2021-04-26 15:24:40.938760,13.48277
2021-04-26 15:24:40.954390,11.56548
2021-04-26 15:24:40.970020,10.08724
2021-04-26 15:24:40.985640,9.483849
2021-04-26 15:24:41.001270,9.825348
2021-04-26 15:24:41.016890,10.85691
2021-04-26 15:24:41.032520,12.10387
2021-04-26 15:24:41.048140,13.0631
2021-04-26 15:24:41.063770,13.35007
2021-04-26 15:24:41.079400,12.82533
2021-04-26 15:24:41.095020,11.61209
2021-04-26 15:24:41.110650,10.06394
2021-04-26 15:24:41.126270,8.636009
2021-04-26 15:24:41.141900,7.737076
2021-04-26 15:24:41.157520,7.550827
2021-04-26 15:24:41.173150,7.941689
2021-04-26 15:24:41.188780,8.476387
2021-04-26 15:24:41.204400,8.517944
2021-04-26 15:24:41.220030,7.442368
2021-04-26 15:24:41.235650,4.792732
2021-04-26 15:24:41.266900,-5.584732
2021-04-26 15:24:41.282530,-12.63693
2021-04-26 15:24:41.298160,-19.96101
2021-04-26 15:24:41.313780,-26.54847
2021-04-26 15:24:41.329410,-31.32876
2021-04-26 15:24:41.345030,-33.40037
2021-04-26 15:24:41.360660,-32.282
2021-04-26 15:24:41.376280,-28.09639
2021-04-26 15:24:41.391910,-21.55266
2021-04-26 15:24:41.407540,-13.74142
2021-04-26 15:24:41.423160,-5.788208
2021-04-26 15:24:41.438790,1.458771
2021-04-26 15:24:41.454410,7.517014
2021-04-26 15:24:41.470040,12.22256
2021-04-26 15:24:41.485660,15.57715
2021-04-26 15:24:41.501290,17.62479
2021-04-26 15:24:41.516920,18.45113
2021-04-26 15:24:41.532540,18.26089
2021-04-26 15:24:41.548170,17.40695
2021-04-26 15:24:41.563790,16.34462
2021-04-26 15:24:41.579420,15.44998
2021-04-26 15:24:41.595040,14.89977
2021-04-26 15:24:41.610670,14.59061
2021-04-26 15:24:41.626300,14.20256
2021-04-26 15:24:41.641920,13.39278
2021-04-26 15:24:41.657550,11.95729
2021-04-26 15:24:41.673170,9.927429
2021-04-26 15:24:41.688800,7.549576
2021-04-26 15:24:41.704420,5.155228
2021-04-26 15:24:41.720050,3.027908
2021-04-26 15:24:41.735680,1.239136
2021-04-26 15:24:41.751300,-0.3727264
2021-04-26 15:24:41.766930,-2.180862
2021-04-26 15:24:41.782550,-4.612625
2021-04-26 15:24:41.798180,-7.963806
2021-04-26 15:24:41.813800,-12.30168
2021-04-26 15:24:41.829430,-17.47533
2021-04-26 15:24:41.845060,-23.18921
2021-04-26 15:24:41.860680,-29.06812
2021-04-26 15:24:41.876310,-34.65358
2021-04-26 15:24:41.891930,-39.37456
2021-04-26 15:24:41.907560,-42.54843
2021-04-26 15:24:41.923180,-43.5498
2021-04-26 15:24:41.938810,-42.02322
2021-04-26 15:24:41.954440,-38.07031
2021-04-26 15:24:41.970060,-32.27788
2021-04-26 15:24:41.985690,-25.48994
2021-04-26 15:24:42.001310,-18.48611
2021-04-26 15:24:42.016940,-11.73358
2021-04-26 15:24:42.032560,-5.404312
2021-04-26 15:24:42.048190,0.4602203
2021-04-26 15:24:42.063820,5.704163
2021-04-26 15:24:42.079440,9.92363
2021-04-26 15:24:42.095070,12.63347
2021-04-26 15:24:42.110690,13.51199
2021-04-26 15:24:42.126320,12.60211
2021-04-26 15:24:42.141940,10.36571
2021-04-26 15:24:42.157570,7.52121
2021-04-26 15:24:42.173200,4.80072
2021-04-26 15:24:42.188820,2.750671
2021-04-26 15:24:42.204450,1.594681
2021-04-26 15:24:42.220070,1.279739
2021-04-26 15:24:42.235700,1.529373
2021-04-26 15:24:42.251320,2.002884
2021-04-26 15:24:42.266950,2.360321
2021-04-26 15:24:42.282580,2.367615
2021-04-26 15:24:42.298200,1.911697
2021-04-26 15:24:42.313830,0.9656525
2021-04-26 15:24:42.329450,-0.4127808
2021-04-26 15:24:42.345080,-2.167114
2021-04-26 15:24:42.360700,-4.288406
2021-04-26 15:24:42.376330,-6.848877
2021-04-26 15:24:42.391960,-9.983414
2021-04-26 15:24:42.407580,-13.83713
2021-04-26 15:24:42.423210,-18.43532
2021-04-26 15:24:42.438830,-23.57384
2021-04-26 15:24:42.454460,-28.7146
2021-04-26 15:24:42.470080,-33.02554
2021-04-26 15:24:42.485710,-35.56079
2021-04-26 15:24:42.501340,-35.58101
2021-04-26 15:24:42.516960,-32.86006
2021-04-26 15:24:42.532590,-27.8746
2021-04-26 15:24:42.548210,-21.6889
2021-04-26 15:24:42.563840,-15.52365
2021-04-26 15:24:42.579460,-10.33733
2021-04-26 15:24:42.595090,-6.557251
2021-04-26 15:24:42.610720,-4.093597
2021-04-26 15:24:42.626340,-2.705521
2021-04-26 15:24:42.641970,-2.334991
2021-04-26 15:24:42.657590,-3.230896
2021-04-26 15:24:42.673220,-5.767624
2021-04-26 15:24:42.688840,-10.07123
2021-04-26 15:24:42.704470,-15.72708
2021-04-26 15:24:42.720100,-21.8223
2021-04-26 15:24:42.735720,-27.2852
2021-04-26 15:24:42.751350,-31.34192
2021-04-26 15:24:42.766970,-33.80745
2021-04-26 15:24:42.782600,-35.03868
2021-04-26 15:24:42.798220,-35.5748
2021-04-26 15:24:42.813850,-35.86931
2021-04-26 15:24:42.829480,-36.1068
2021-04-26 15:24:42.845100,-36.28677
2021-04-26 15:24:42.860730,-36.37935
2021-04-26 15:24:42.876350,-36.41182
2021-04-26 15:24:42.891980,-36.28178
2021-04-26 15:24:42.907600,-35.55946
2021-04-26 15:24:42.923230,-33.41411
2021-04-26 15:24:42.938860,-28.97295
2021-04-26 15:24:42.954480,-21.92166
2021-04-26 15:24:42.970110,-13.16486
2021-04-26 15:24:42.985730,-4.969589
2021-04-26 15:24:43.001360,-0.2493744
2021-04-26 15:24:43.016980,-1.193283
2021-04-26 15:24:43.032610,-7.885132
2021-04-26 15:24:43.048240,-17.66919
2021-04-26 15:24:43.063860,-25.80583
2021-04-26 15:24:43.079490,-27.254
2021-04-26 15:24:43.095110,-18.74271
2021-04-26 15:24:43.110740,-0.08299255
2021-04-26 15:24:43.126360,25.87759
2021-04-26 15:24:43.141990,54.44187
2021-04-26 15:24:43.157620,80.75584
2021-04-26 15:24:43.173240,101.0711
2021-04-26 15:24:43.188870,113.2369
2021-04-26 15:24:43.204490,116.6413
2021-04-26 15:24:43.220120,111.9452
2021-04-26 15:24:43.235740,100.9689
2021-04-26 15:24:43.251370,86.64301
2021-04-26 15:24:43.267000,72.67398
2021-04-26 15:24:43.282620,62.68481
2021-04-26 15:24:43.298250,59.07716
2021-04-26 15:24:43.313870,62.02568
2021-04-26 15:24:43.329500,69.29578
2021-04-26 15:24:43.345130,77.05771
2021-04-26 15:24:43.360750,81.40759
2021-04-26 15:24:43.376380,79.81848
2021-04-26 15:24:43.392000,71.98865
2021-04-26 15:24:43.407630,59.672
2021-04-26 15:24:43.423250,45.74258
2021-04-26 15:24:43.438880,32.95844
2021-04-26 15:24:43.454510,23.06846
2021-04-26 15:24:43.470130,16.52904
2021-04-26 15:24:43.485760,12.86222
2021-04-26 15:24:43.501380,11.24873
2021-04-26 15:24:43.517010,10.96597
2021-04-26 15:24:43.532630,11.38524
2021-04-26 15:24:43.548260,11.703
2021-04-26 15:24:43.563890,10.79105
2021-04-26 15:24:43.579510,7.403938
2021-04-26 15:24:43.595140,0.7681885
2021-04-26 15:24:43.610760,-8.838776
2021-04-26 15:24:43.626390,-19.94568
2021-04-26 15:24:43.642010,-30.37672
2021-04-26 15:24:43.657640,-38.06799
2021-04-26 15:24:43.673270,-41.88197
2021-04-26 15:24:43.688890,-41.87808
2021-04-26 15:24:43.704520,-39.05327
2021-04-26 15:24:43.720140,-34.81989
2021-04-26 15:24:43.735770,-30.56171
2021-04-26 15:24:43.751390,-27.49734
2021-04-26 15:24:43.767020,-26.66289
2021-04-26 15:24:43.782650,-28.85147
2021-04-26 15:24:43.798270,-34.34628
2021-04-26 15:24:43.813900,-42.63931
2021-04-26 15:24:43.829520,-52.30659
2021-04-26 15:24:43.845150,-61.40385
2021-04-26 15:24:43.860770,-68.01862
2021-04-26 15:24:43.876400,-70.90489
2021-04-26 15:24:43.892030,-69.79561
2021-04-26 15:24:43.907650,-65.34096
2021-04-26 15:24:43.923280,-58.72627
2021-04-26 15:24:43.938900,-51.18665
2021-04-26 15:24:43.954530,-43.66576
2021-04-26 15:24:43.970150,-36.64658
2021-04-26 15:24:43.985780,-30.04926
2021-04-26 15:24:44.001410,-23.26991
2021-04-26 15:24:44.017030,-15.43491
2021-04-26 15:24:44.032660,-5.845367
2021-04-26 15:24:44.048280,5.428223
2021-04-26 15:24:44.063910,17.16034
2021-04-26 15:24:44.079530,27.01547
2021-04-26 15:24:44.095160,32.19151
2021-04-26 15:24:44.110790,30.52866
2021-04-26 15:24:44.126410,21.46536
2021-04-26 15:24:44.142040,6.528214
2021-04-26 15:24:44.157660,-10.98016
2021-04-26 15:24:44.173290,-26.9487
2021-04-26 15:24:44.188910,-37.75685
2021-04-26 15:24:44.204540,-41.25174
2021-04-26 15:24:44.220170,-37.19194
2021-04-26 15:24:44.235790,-27.03342
2021-04-26 15:24:44.251420,-13.30205
2021-04-26 15:24:44.267040,1.142456
2021-04-26 15:24:44.282670,13.73987
2021-04-26 15:24:44.298290,22.68029
2021-04-26 15:24:44.313920,27.15854
2021-04-26 15:24:44.329550,27.40894
2021-04-26 15:24:44.345170,24.48204
2021-04-26 15:24:44.360800,19.83827
2021-04-26 15:24:44.376420,14.89529
2021-04-26 15:24:44.392050,10.69945
2021-04-26 15:24:44.407670,7.830261
2021-04-26 15:24:44.423300,6.500122
2021-04-26 15:24:44.438930,6.668304
2021-04-26 15:24:44.454550,8.075287
2021-04-26 15:24:44.470180,10.19694
2021-04-26 15:24:44.485800,12.24483
2021-04-26 15:24:44.501430,13.34921
2021-04-26 15:24:44.517050,12.92419
2021-04-26 15:24:44.532680,10.93784
2021-04-26 15:24:44.548310,7.96257
2021-04-26 15:24:44.563930,4.851891
2021-04-26 15:24:44.579560,2.265404
2021-04-26 15:24:44.595180,0.2850952
2021-04-26 15:24:44.626430,-4.13446
2021-04-26 15:24:44.642060,-7.990326
2021-04-26 15:24:44.657690,-13.30861
2021-04-26 15:24:44.673310,-19.64361
2021-04-26 15:24:44.688940,-25.96322
2021-04-26 15:24:44.704560,-30.804
2021-04-26 15:24:44.720190,-32.58727
2021-04-26 15:24:44.735810,-30.1656
2021-04-26 15:24:44.751440,-23.42558
2021-04-26 15:24:44.767070,-13.61736
2021-04-26 15:24:44.782690,-3.133171
2021-04-26 15:24:44.798320,5.466438
2021-04-26 15:24:44.813940,10.61905
2021-04-26 15:24:44.829570,12.52594
2021-04-26 15:24:44.845190,12.97888
2021-04-26 15:24:44.860820,14.26725
2021-04-26 15:24:44.876450,17.82412
2021-04-26 15:24:44.892070,23.44443
2021-04-26 15:24:44.907700,29.52271
2021-04-26 15:24:44.923320,34.08694
2021-04-26 15:24:44.938950,35.97749
2021-04-26 15:24:44.954570,35.37363
2021-04-26 15:24:44.970200,33.46986
2021-04-26 15:24:44.985830,31.60588
2021-04-26 15:24:45.001450,30.39165
2021-04-26 15:24:45.017080,29.55801
2021-04-26 15:24:45.032700,28.28495
2021-04-26 15:24:45.048330,25.87702
2021-04-26 15:24:45.063950,22.25717
2021-04-26 15:24:45.079580,17.97521
2021-04-26 15:24:45.095210,13.84644
2021-04-26 15:24:45.110830,10.46918
2021-04-26 15:24:45.126460,7.894341
2021-04-26 15:24:45.142080,5.573433
2021-04-26 15:24:45.157710,2.671455
2021-04-26 15:24:45.173330,-1.628952
2021-04-26 15:24:45.188960,-7.758179
2021-04-26 15:24:45.204590,-15.66403
2021-04-26 15:24:45.220210,-24.78355
2021-04-26 15:24:45.235840,-34.20696
2021-04-26 15:24:45.251460,-42.87466
2021-04-26 15:24:45.267090,-49.76471
2021-04-26 15:24:45.282710,-54.0968
2021-04-26 15:24:45.298340,-55.52165
2021-04-26 15:24:45.313970,-54.18483
2021-04-26 15:24:45.329590,-50.64313
2021-04-26 15:24:45.345220,-45.58568
2021-04-26 15:24:45.360840,-39.52358
2021-04-26 15:24:45.376470,-32.61025
2021-04-26 15:24:45.392090,-24.67979
2021-04-26 15:24:45.407720,-15.45985
2021-04-26 15:24:45.423350,-4.821953
2021-04-26 15:24:45.438970,7.09832
2021-04-26 15:24:45.454600,19.8375
2021-04-26 15:24:45.470220,32.63976
2021-04-26 15:24:45.485850,44.50896
2021-04-26 15:24:45.501470,54.22542
2021-04-26 15:24:45.517100,60.60069
2021-04-26 15:24:45.532730,62.82642
2021-04-26 15:24:45.548350,60.84838
2021-04-26 15:24:45.563980,55.57561
2021-04-26 15:24:45.579600,48.68707
2021-04-26 15:24:45.595230,42.02278
2021-04-26 15:24:45.610860,36.90205
2021-04-26 15:24:45.626480,33.72129
2021-04-26 15:24:45.642110,31.9813
2021-04-26 15:24:45.657730,30.73943
2021-04-26 15:24:45.673360,29.13082
2021-04-26 15:24:45.688980,26.69538
2021-04-26 15:24:45.704610,23.32927
2021-04-26 15:24:45.720240,19.064
2021-04-26 15:24:45.735860,13.84808
2021-04-26 15:24:45.751490,7.505539
2021-04-26 15:24:45.767110,-0.1193085
2021-04-26 15:24:45.782740,-8.945839
2021-04-26 15:24:45.798360,-18.54609
2021-04-26 15:24:45.813990,-28.12096
2021-04-26 15:24:45.829620,-36.61562
2021-04-26 15:24:45.845240,-42.9966
2021-04-26 15:24:45.860870,-46.56345
2021-04-26 15:24:45.876490,-47.13467
2021-04-26 15:24:45.892120,-45.04998
2021-04-26 15:24:45.907740,-40.95554
2021-04-26 15:24:45.923370,-35.52048
2021-04-26 15:24:45.939000,-29.17458
2021-04-26 15:24:45.954620,-22.10578
2021-04-26 15:24:45.970250,-14.43764
2021-04-26 15:24:45.985870,-6.472603
2021-04-26 15:24:46.001500,1.176224
2021-04-26 15:24:46.017120,7.645157
2021-04-26 15:24:46.032750,12.13258
2021-04-26 15:24:46.048380,14.11168
2021-04-26 15:24:46.064000,13.42581
2021-04-26 15:24:46.079630,10.21752
2021-04-26 15:24:46.095250,4.733269
2021-04-26 15:24:46.110880,-2.737518
2021-04-26 15:24:46.126500,-11.7691
2021-04-26 15:24:46.142130,-21.58134
2021-04-26 15:24:46.157760,-30.96913
2021-04-26 15:24:46.173380,-38.4707
2021-04-26 15:24:46.189010,-42.76167
2021-04-26 15:24:46.204630,-43.13516
2021-04-26 15:24:46.220260,-39.84934
2021-04-26 15:24:46.235880,-34.15144
2021-04-26 15:24:46.251510,-27.97696
2021-04-26 15:24:46.267140,-23.31938
2021-04-26 15:24:46.282760,-21.5686
2021-04-26 15:24:46.298390,-23.09458
2021-04-26 15:24:46.314010,-27.19572
2021-04-26 15:24:46.329640,-32.37895
2021-04-26 15:24:46.345260,-36.90022
2021-04-26 15:24:46.360890,-39.2591
2021-04-26 15:24:46.376520,-38.5185
2021-04-26 15:24:46.392140,-34.46577
2021-04-26 15:24:46.407770,-27.57534
2021-04-26 15:24:46.423390,-18.96284
2021-04-26 15:24:46.439020,-10.15717
2021-04-26 15:24:46.454640,-2.775402
2021-04-26 15:24:46.470270,1.930855
2021-04-26 15:24:46.485900,3.501862
2021-04-26 15:24:46.501520,2.519207
2021-04-26 15:24:46.517150,0.4204025
2021-04-26 15:24:46.532770,-1.075626
2021-04-26 15:24:46.548400,-0.702858
2021-04-26 15:24:46.564020,1.857231
2021-04-26 15:24:46.579650,6.009106
2021-04-26 15:24:46.595280,10.67441
2021-04-26 15:24:46.610900,14.89199
2021-04-26 15:24:46.626530,18.14911
2021-04-26 15:24:46.642150,20.38664
2021-04-26 15:24:46.657780,21.79624
2021-04-26 15:24:46.673400,22.53151
2021-04-26 15:24:46.689030,22.67941
2021-04-26 15:24:46.704660,22.27612
2021-04-26 15:24:46.720280,21.44067
2021-04-26 15:24:46.735910,20.32972
2021-04-26 15:24:46.751530,19.00292
2021-04-26 15:24:46.767160,17.36206
2021-04-26 15:24:46.782780,15.21101
2021-04-26 15:24:46.798410,12.45828
2021-04-26 15:24:46.814040,9.322313
2021-04-26 15:24:46.829660,6.389211
2021-04-26 15:24:46.845290,4.300715
2021-04-26 15:24:46.860910,3.465014
2021-04-26 15:24:46.876540,3.78912
2021-04-26 15:24:46.892160,4.724382
2021-04-26 15:24:46.907790,5.596406
2021-04-26 15:24:46.923420,5.936982
2021-04-26 15:24:46.939040,5.740794
2021-04-26 15:24:46.954670,5.442713
2021-04-26 15:24:46.970290,5.706498
2021-04-26 15:24:46.985920,7.106244
2021-04-26 15:24:47.001540,9.920743
2021-04-26 15:24:47.017170,14.10646
2021-04-26 15:24:47.032800,19.36273
2021-04-26 15:24:47.048420,25.30181
2021-04-26 15:24:47.064050,31.49684
2021-04-26 15:24:47.079670,37.48257
2021-04-26 15:24:47.095300,42.73673
2021-04-26 15:24:47.110920,46.76425
2021-04-26 15:24:47.126550,49.18557
2021-04-26 15:24:47.142180,49.89526
2021-04-26 15:24:47.157800,49.14135
2021-04-26 15:24:47.173430,47.43096
2021-04-26 15:24:47.189050,45.40347
2021-04-26 15:24:47.204680,43.56836
2021-04-26 15:24:47.220300,42.17513
2021-04-26 15:24:47.235930,41.222
2021-04-26 15:24:47.251560,40.5334
2021-04-26 15:24:47.267180,39.98982
2021-04-26 15:24:47.282810,39.5976
2021-04-26 15:24:47.298430,39.45465
2021-04-26 15:24:47.314060,39.6222
2021-04-26 15:24:47.329680,40.01259
2021-04-26 15:24:47.345310,40.28727
2021-04-26 15:24:47.360940,39.91642
2021-04-26 15:24:47.376560,38.26538
2021-04-26 15:24:47.392190,34.76094
2021-04-26 15:24:47.407810,29.10661
2021-04-26 15:24:47.423440,21.40665
2021-04-26 15:24:47.439060,12.30776
2021-04-26 15:24:47.454690,2.927722
2021-04-26 15:24:47.470320,-5.369812
2021-04-26 15:24:47.485940,-11.34189
2021-04-26 15:24:47.501570,-14.22991
2021-04-26 15:24:47.517190,-14.01024
2021-04-26 15:24:47.532820,-11.40429
2021-04-26 15:24:47.548440,-7.568354
2021-04-26 15:24:47.564070,-3.727463
2021-04-26 15:24:47.579700,-0.8135643
2021-04-26 15:24:47.595320,0.6940536
2021-04-26 15:24:47.610950,0.7110577
2021-04-26 15:24:47.626570,-0.6187
2021-04-26 15:24:47.642200,-3.088284
2021-04-26 15:24:47.657820,-6.533863
2021-04-26 15:24:47.673450,-10.83092
2021-04-26 15:24:47.689080,-15.7877
2021-04-26 15:24:47.704700,-21.10283
2021-04-26 15:24:47.720330,-26.33615
2021-04-26 15:24:47.735950,-30.95763
2021-04-26 15:24:47.751580,-34.53894
2021-04-26 15:24:47.767210,-36.87714
2021-04-26 15:24:47.782830,-38.09172
2021-04-26 15:24:47.798460,-38.62808
2021-04-26 15:24:47.814080,-39.07722
2021-04-26 15:24:47.829710,-39.94162
2021-04-26 15:24:47.845330,-41.52574
2021-04-26 15:24:47.860960,-43.91006
2021-04-26 15:24:47.876590,-47.05594
2021-04-26 15:24:47.892210,-50.92271
2021-04-26 15:24:47.907840,-55.43376
2021-04-26 15:24:47.923460,-60.31467
2021-04-26 15:24:47.939090,-64.95027
2021-04-26 15:24:47.954710,-68.32642
2021-04-26 15:24:47.970340,-69.30508
2021-04-26 15:24:47.985970,-66.96676
2021-04-26 15:24:48.001590,-60.96056
2021-04-26 15:24:48.017220,-51.62439
2021-04-26 15:24:48.032840,-39.93992
2021-04-26 15:24:48.048470,-27.19041
2021-04-26 15:24:48.064090,-14.69704
2021-04-26 15:24:48.079720,-3.531269
2021-04-26 15:24:48.095350,5.607483
2021-04-26 15:24:48.110970,12.44412
2021-04-26 15:24:48.126600,17.11832
2021-04-26 15:24:48.142220,20.00838
2021-04-26 15:24:48.157850,21.59306
2021-04-26 15:24:48.173470,22.23038
2021-04-26 15:24:48.189100,22.12111
2021-04-26 15:24:48.204730,21.3226
2021-04-26 15:24:48.220350,19.90548
2021-04-26 15:24:48.235980,18.07962
2021-04-26 15:24:48.251600,16.16778
2021-04-26 15:24:48.267230,14.50244
2021-04-26 15:24:48.282850,13.22714
2021-04-26 15:24:48.298480,12.25758
2021-04-26 15:24:48.314110,11.33249
2021-04-26 15:24:48.329730,10.18277
2021-04-26 15:24:48.345360,8.599659
2021-04-26 15:24:48.360980,6.424435
2021-04-26 15:24:48.376610,3.451077
2021-04-26 15:24:48.392230,-0.63834
2021-04-26 15:24:48.407860,-6.09655
2021-04-26 15:24:48.423490,-12.87465
2021-04-26 15:24:48.439110,-20.35729
2021-04-26 15:24:48.454740,-27.3532
2021-04-26 15:24:48.470360,-32.32192
2021-04-26 15:24:48.485990,-33.85554
2021-04-26 15:24:48.501610,-31.15114
2021-04-26 15:24:48.517240,-24.26742
2021-04-26 15:24:48.532870,-14.13618
2021-04-26 15:24:48.548490,-2.285084
2021-04-26 15:24:48.564120,9.576891
2021-04-26 15:24:48.579740,19.99578
2021-04-26 15:24:48.595370,28.03707
2021-04-26 15:24:48.610990,33.41818
2021-04-26 15:24:48.626620,36.4043
2021-04-26 15:24:48.642250,37.56264
2021-04-26 15:24:48.657870,37.49536
2021-04-26 15:24:48.673500,36.61058
2021-04-26 15:24:48.689120,35.11176
2021-04-26 15:24:48.704750,33.09031
2021-04-26 15:24:48.720370,30.64905
2021-04-26 15:24:48.736000,27.95565
2021-04-26 15:24:48.751630,25.17595
2021-04-26 15:24:48.767250,22.35977
2021-04-26 15:24:48.782880,19.37541
2021-04-26 15:24:48.798500,16.00923
2021-04-26 15:24:48.814130,12.14312
2021-04-26 15:24:48.829750,7.921783
2021-04-26 15:24:48.845380,3.690289
2021-04-26 15:24:48.861010,-0.2061806
2021-04-26 15:24:48.876630,-3.696745
2021-04-26 15:24:48.892260,-7.114794
2021-04-26 15:24:48.907880,-11.07816
2021-04-26 15:24:48.923510,-16.21983
2021-04-26 15:24:48.939130,-22.78693
2021-04-26 15:24:48.954760,-30.41817
2021-04-26 15:24:48.970390,-38.11115
2021-04-26 15:24:48.986010,-44.41644
2021-04-26 15:24:49.001640,-47.815
2021-04-26 15:24:49.017260,-47.12479
2021-04-26 15:24:49.032890,-41.87144
2021-04-26 15:24:49.048510,-32.49044
2021-04-26 15:24:49.064140,-20.25347
2021-04-26 15:24:49.079770,-6.930501
2021-04-26 15:24:49.095390,5.673207
2021-04-26 15:24:49.111020,16.23042
2021-04-26 15:24:49.126640,24.09655
2021-04-26 15:24:49.142270,29.28308
2021-04-26 15:24:49.157890,32.20889
2021-04-26 15:24:49.173520,33.40457
2021-04-26 15:24:49.189150,33.33535
2021-04-26 15:24:49.204770,32.38184
2021-04-26 15:24:49.220400,30.88725
2021-04-26 15:24:49.236020,29.1737
2021-04-26 15:24:49.251650,27.50093
2021-04-26 15:24:49.267270,26.01273
2021-04-26 15:24:49.282900,24.67406
2021-04-26 15:24:49.298530,23.3306
2021-04-26 15:24:49.314150,21.79956
2021-04-26 15:24:49.329780,19.96194
2021-04-26 15:24:49.345400,17.84932
2021-04-26 15:24:49.361030,15.62589
2021-04-26 15:24:49.376650,13.4911
2021-04-26 15:24:49.392280,11.56244
2021-04-26 15:24:49.407910,9.777315
2021-04-26 15:24:49.423530,7.825097
2021-04-26 15:24:49.439160,5.231534
2021-04-26 15:24:49.454780,1.526232
2021-04-26 15:24:49.470410,-3.537317
2021-04-26 15:24:49.486030,-9.708728
2021-04-26 15:24:49.501660,-16.1525
2021-04-26 15:24:49.517290,-21.59766
2021-04-26 15:24:49.532910,-24.6558
2021-04-26 15:24:49.548540,-24.26761
2021-04-26 15:24:49.564160,-20.08757
2021-04-26 15:24:49.579790,-12.56271
2021-04-26 15:24:49.595410,-2.812226
2021-04-26 15:24:49.611040,7.739812
2021-04-26 15:24:49.626670,17.76587
2021-04-26 15:24:49.642290,26.34347
2021-04-26 15:24:49.657920,32.9786
2021-04-26 15:24:49.673540,37.56269
2021-04-26 15:24:49.689170,40.17563
2021-04-26 15:24:49.704790,40.93579
2021-04-26 15:24:49.720420,40.01991
2021-04-26 15:24:49.736050,37.70734
2021-04-26 15:24:49.751670,34.4316
2021-04-26 15:24:49.767300,30.7462
2021-04-26 15:24:49.782920,27.17366
2021-04-26 15:24:49.798550,23.99126
2021-04-26 15:24:49.814170,21.21017
2021-04-26 15:24:49.829800,18.63392
2021-04-26 15:24:49.845430,16.03798
2021-04-26 15:24:49.861050,13.34696
2021-04-26 15:24:49.876680,10.63995
2021-04-26 15:24:49.892300,8.068501
2021-04-26 15:24:49.907930,5.727421
2021-04-26 15:24:49.923550,3.579594
2021-04-26 15:24:49.939180,1.47971
2021-04-26 15:24:49.954810,-0.7572289
2021-04-26 15:24:49.970430,-3.36039
2021-04-26 15:24:49.986060,-6.570797
2021-04-26 15:24:50.001680,-10.60653
2021-04-26 15:24:50.017310,-15.56037
2021-04-26 15:24:50.032930,-21.14057
2021-04-26 15:24:50.048560,-26.55122
2021-04-26 15:24:50.064190,-30.59904
2021-04-26 15:24:50.079810,-32.0052
2021-04-26 15:24:50.095440,-29.91682
2021-04-26 15:24:50.111060,-24.2586
2021-04-26 15:24:50.126690,-15.78848
2021-04-26 15:24:50.142310,-5.807823
2021-04-26 15:24:50.157940,4.256142
2021-04-26 15:24:50.173570,13.2715
2021-04-26 15:24:50.189190,20.52291
2021-04-26 15:24:50.204820,25.69623
2021-04-26 15:24:50.220440,28.74769
2021-04-26 15:24:50.236070,29.78622
2021-04-26 15:24:50.251690,29.05101
2021-04-26 15:24:50.267320,26.90432
2021-04-26 15:24:50.282950,23.85887
2021-04-26 15:24:50.298570,20.45039
2021-04-26 15:24:50.314200,17.20531
2021-04-26 15:24:50.329820,14.50078
2021-04-26 15:24:50.345450,12.51013
2021-04-26 15:24:50.361070,11.1732
2021-04-26 15:24:50.376700,10.1809
2021-04-26 15:24:50.392330,9.110405
2021-04-26 15:24:50.407950,7.616066
2021-04-26 15:24:50.423580,5.608406
2021-04-26 15:24:50.439200,3.285759
2021-04-26 15:24:50.454830,1.040253
2021-04-26 15:24:50.470460,-0.8413239
2021-04-26 15:24:50.486080,-2.392212
2021-04-26 15:24:50.501710,-4.042572
2021-04-26 15:24:50.517330,-6.454941
2021-04-26 15:24:50.532960,-10.17766
2021-04-26 15:24:50.548580,-15.26859
2021-04-26 15:24:50.564210,-21.12521
2021-04-26 15:24:50.579840,-26.60881
2021-04-26 15:24:50.595460,-30.34552
2021-04-26 15:24:50.611090,-31.2003
2021-04-26 15:24:50.626710,-28.56664
2021-04-26 15:24:50.642340,-22.54797
2021-04-26 15:24:50.657960,-13.85349
2021-04-26 15:24:50.673590,-3.617874
2021-04-26 15:24:50.689220,6.868546
2021-04-26 15:24:50.704840,16.43259
2021-04-26 15:24:50.720470,24.1781
2021-04-26 15:24:50.736090,29.60106
2021-04-26 15:24:50.751720,32.56734
2021-04-26 15:24:50.767340,33.32529
2021-04-26 15:24:50.782970,32.44357
2021-04-26 15:24:50.798600,30.67238
2021-04-26 15:24:50.814220,28.79265
2021-04-26 15:24:50.829850,27.33821
2021-04-26 15:24:50.845470,26.4816
2021-04-26 15:24:50.861100,25.99191
2021-04-26 15:24:50.876720,25.40056
2021-04-26 15:24:50.892350,24.29948
2021-04-26 15:24:50.907980,22.54672
2021-04-26 15:24:50.923600,20.37582
2021-04-26 15:24:50.939230,18.24092
2021-04-26 15:24:50.954850,16.60928
2021-04-26 15:24:50.970480,15.74768
2021-04-26 15:24:50.986100,15.593
2021-04-26 15:24:51.001730,15.8293
2021-04-26 15:24:51.017360,15.94046
2021-04-26 15:24:51.032980,15.29146
2021-04-26 15:24:51.048610,13.20071
2021-04-26 15:24:51.064230,9.103027
2021-04-26 15:24:51.079860,2.790833
2021-04-26 15:24:51.095480,-5.211487
2021-04-26 15:24:51.111110,-13.52826
2021-04-26 15:24:51.126740,-20.14105
2021-04-26 15:24:51.142360,-23.04309
2021-04-26 15:24:51.157990,-20.96313
2021-04-26 15:24:51.173610,-14.06232
2021-04-26 15:24:51.189240,-4.052246
2021-04-26 15:24:51.204860,6.437347
2021-04-26 15:24:51.220490,14.83591
2021-04-26 15:24:51.236120,19.5657
2021-04-26 15:24:51.251740,20.51508
2021-04-26 15:24:51.267370,18.75266
2021-04-26 15:24:51.282990,15.82953
2021-04-26 15:24:51.298620,13.13498
2021-04-26 15:24:51.314240,11.55307
2021-04-26 15:24:51.329870,11.51956
2021-04-26 15:24:51.345500,13.14838
2021-04-26 15:24:51.361120,16.1998
2021-04-26 15:24:51.376750,19.84778
2021-04-26 15:24:51.392370,22.52328
2021-04-26 15:24:51.408000,22.23944
2021-04-26 15:24:51.423620,17.34406
2021-04-26 15:24:51.439250,7.383423
2021-04-26 15:24:51.454880,-6.479309
2021-04-26 15:24:51.470500,-21.88882
2021-04-26 15:24:51.486130,-36.37827
2021-04-26 15:24:51.501750,-48.3942
2021-04-26 15:24:51.517380,-57.7551
2021-04-26 15:24:51.533000,-65.33496
2021-04-26 15:24:51.548630,-72.30725
2021-04-26 15:24:51.564260,-79.46381
2021-04-26 15:24:51.579880,-87.11459
2021-04-26 15:24:51.595510,-95.18558
2021-04-26 15:24:51.611130,-103.3549
2021-04-26 15:24:51.626760,-110.9504
2021-04-26 15:24:51.642380,-116.7196
2021-04-26 15:24:51.658010,-118.7699
2021-04-26 15:24:51.673640,-115.1393
2021-04-26 15:24:51.689260,-104.8337
2021-04-26 15:24:51.704890,-88.55206
2021-04-26 15:24:51.720510,-68.82623
2021-04-26 15:24:51.736140,-49.15851
2021-04-26 15:24:51.751760,-32.56326
2021-04-26 15:24:51.767390,-20.40436
2021-04-26 15:24:51.783020,-12.15387
2021-04-26 15:24:51.798640,-6.101776
2021-04-26 15:24:51.814270,-0.566925
2021-04-26 15:24:51.829890,5.151703
2021-04-26 15:24:51.845520,10.63229
2021-04-26 15:24:51.861140,14.91278
2021-04-26 15:24:51.876770,17.38156
2021-04-26 15:24:51.892400,18.24463
2021-04-26 15:24:51.908020,18.37613
2021-04-26 15:24:51.923650,18.71078
2021-04-26 15:24:51.939270,19.62073
2021-04-26 15:24:51.954900,20.72461
2021-04-26 15:24:51.970520,21.22046
2021-04-26 15:24:51.986150,20.42691
2021-04-26 15:24:52.001780,18.24435
2021-04-26 15:24:52.017400,15.27048
2021-04-26 15:24:52.033030,12.44919
2021-04-26 15:24:52.048650,10.60367
2021-04-26 15:24:52.064280,9.999268
2021-04-26 15:24:52.079900,10.16776
2021-04-26 15:24:52.095530,10.06311
2021-04-26 15:24:52.111160,8.45282
2021-04-26 15:24:52.126780,4.560242
2021-04-26 15:24:52.142410,-1.519623
2021-04-26 15:24:52.158030,-8.622681
2021-04-26 15:24:52.173660,-14.8588
2021-04-26 15:24:52.189280,-18.33609
2021-04-26 15:24:52.204910,-17.90768
2021-04-26 15:24:52.220540,-13.66806
2021-04-26 15:24:52.236160,-6.787231
2021-04-26 15:24:52.251790,1.089478
2021-04-26 15:24:52.267410,8.584503
2021-04-26 15:24:52.283040,14.98019
2021-04-26 15:24:52.298660,20.18729
2021-04-26 15:24:52.314290,24.32358
2021-04-26 15:24:52.329920,27.33719
2021-04-26 15:24:52.345540,28.96231
2021-04-26 15:24:52.361170,28.9198
2021-04-26 15:24:52.376790,27.25992
2021-04-26 15:24:52.392420,24.46036
2021-04-26 15:24:52.408040,21.26096
2021-04-26 15:24:52.423670,18.29059
2021-04-26 15:24:52.439300,15.84149
2021-04-26 15:24:52.454920,13.82083
2021-04-26 15:24:52.470550,11.95862
2021-04-26 15:24:52.486170,10.04572
2021-04-26 15:24:52.501800,8.067291
2021-04-26 15:24:52.517420,6.169312
2021-04-26 15:24:52.533050,4.496521
2021-04-26 15:24:52.548680,3.100433
2021-04-26 15:24:52.564300,1.860107
2021-04-26 15:24:52.579930,0.5462646
2021-04-26 15:24:52.595550,-1.150299
2021-04-26 15:24:52.611180,-3.574982
2021-04-26 15:24:52.626810,-7.044464
2021-04-26 15:24:52.642430,-11.80197
2021-04-26 15:24:52.658060,-17.8428
2021-04-26 15:24:52.673680,-24.79367
2021-04-26 15:24:52.689310,-31.78363
2021-04-26 15:24:52.704930,-37.58392
2021-04-26 15:24:52.720560,-40.89716
2021-04-26 15:24:52.736190,-40.7193
2021-04-26 15:24:52.751810,-36.74271
2021-04-26 15:24:52.767440,-29.41251
2021-04-26 15:24:52.783060,-19.86209
2021-04-26 15:24:52.798690,-9.552429
2021-04-26 15:24:52.814310,0.04220581
2021-04-26 15:24:52.829940,7.805023
2021-04-26 15:24:52.845570,13.15073
2021-04-26 15:24:52.861190,16.15033
2021-04-26 15:24:52.876820,17.39285
2021-04-26 15:24:52.892440,17.70544
2021-04-26 15:24:52.908070,17.77942
2021-04-26 15:24:52.923690,17.89023
2021-04-26 15:24:52.939320,17.8457
2021-04-26 15:24:52.954950,17.22424
2021-04-26 15:24:52.970570,15.702
2021-04-26 15:24:52.986200,13.32144
2021-04-26 15:24:53.001820,10.47079
2021-04-26 15:24:53.017450,7.675385
2021-04-26 15:24:53.033070,5.234985
2021-04-26 15:24:53.048700,3.065796
2021-04-26 15:24:53.064330,0.7757263
2021-04-26 15:24:53.079950,-2.019745
2021-04-26 15:24:53.095580,-5.486847
2021-04-26 15:24:53.111200,-9.440735
2021-04-26 15:24:53.126830,-13.53079
2021-04-26 15:24:53.142450,-17.43506
2021-04-26 15:24:53.158080,-21.08398
2021-04-26 15:24:53.173710,-24.68909
2021-04-26 15:24:53.189330,-28.56689
2021-04-26 15:24:53.204960,-32.90814
2021-04-26 15:24:53.220580,-37.47772
2021-04-26 15:24:53.236210,-41.54031
2021-04-26 15:24:53.251830,-43.97119
2021-04-26 15:24:53.267460,-43.62137
2021-04-26 15:24:53.283090,-39.79742
2021-04-26 15:24:53.298710,-32.57648
2021-04-26 15:24:53.314340,-22.92795
2021-04-26 15:24:53.329960,-12.38611
2021-04-26 15:24:53.345590,-2.539368
2021-04-26 15:24:53.361210,5.50647
2021-04-26 15:24:53.376840,11.29944
2021-04-26 15:24:53.392470,14.9733
2021-04-26 15:24:53.408090,16.84946
2021-04-26 15:24:53.423720,17.20071
2021-04-26 15:24:53.439340,16.1481
2021-04-26 15:24:53.454970,13.78873
2021-04-26 15:24:53.470590,10.38867
2021-04-26 15:24:53.486220,6.467834
2021-04-26 15:24:53.501850,2.69931
2021-04-26 15:24:53.517470,-0.3512573
2021-04-26 15:24:53.533100,-2.428192
2021-04-26 15:24:53.548720,-3.718964
2021-04-26 15:24:53.564350,-4.682587
2021-04-26 15:24:53.579970,-5.783661
2021-04-26 15:24:53.595600,-7.226532
2021-04-26 15:24:53.611230,-8.88031
2021-04-26 15:24:53.626850,-10.4621
2021-04-26 15:24:53.642480,-11.74869
2021-04-26 15:24:53.658100,-12.81277
2021-04-26 15:24:53.673730,-14.05038
2021-04-26 15:24:53.689350,-16.03394
2021-04-26 15:24:53.704980,-19.22919
2021-04-26 15:24:53.720610,-23.71503
2021-04-26 15:24:53.736230,-29.04462
2021-04-26 15:24:53.751860,-34.20737
2021-04-26 15:24:53.767480,-37.91559
2021-04-26 15:24:53.783110,-38.98984
2021-04-26 15:24:53.798730,-36.72495
2021-04-26 15:24:53.814360,-31.15314
2021-04-26 15:24:53.829990,-23.05374
2021-04-26 15:24:53.845610,-13.65985
2021-04-26 15:24:53.861240,-4.270721
2021-04-26 15:24:53.876860,4.10907
2021-04-26 15:24:53.892490,10.90924
2021-04-26 15:24:53.908110,15.9277
2021-04-26 15:24:53.923740,19.11459
2021-04-26 15:24:53.939370,20.47488
2021-04-26 15:24:53.954990,20.07327
2021-04-26 15:24:53.970620,18.16025
2021-04-26 15:24:53.986240,15.25653
2021-04-26 15:24:54.001870,12.09488
2021-04-26 15:24:54.017490,9.375885
2021-04-26 15:24:54.033120,7.533112
2021-04-26 15:24:54.048750,6.610016
2021-04-26 15:24:54.064370,6.284637
2021-04-26 15:24:54.080000,6.061188
2021-04-26 15:24:54.095620,5.508331
2021-04-26 15:24:54.111250,4.39505
2021-04-26 15:24:54.126870,2.739166
2021-04-26 15:24:54.142500,0.7585449
2021-04-26 15:24:54.158130,-1.261566
2021-04-26 15:24:54.173750,-3.093292
2021-04-26 15:24:54.189380,-4.728912
2021-04-26 15:24:54.205000,-6.437073
2021-04-26 15:24:54.220630,-8.73938
2021-04-26 15:24:54.236250,-12.2334
2021-04-26 15:24:54.251880,-17.21066
2021-04-26 15:24:54.267510,-23.4325
2021-04-26 15:24:54.283130,-29.97388
2021-04-26 15:24:54.298760,-35.4079
2021-04-26 15:24:54.314380,-38.21643
2021-04-26 15:24:54.330010,-37.31125
2021-04-26 15:24:54.345630,-32.42371
2021-04-26 15:24:54.361260,-24.19043
2021-04-26 15:24:54.376890,-13.93054
2021-04-26 15:24:54.392510,-3.237244
2021-04-26 15:24:54.408140,6.463409
2021-04-26 15:24:54.423760,14.16528
2021-04-26 15:24:54.439390,19.37762
2021-04-26 15:24:54.455010,22.039
2021-04-26 15:24:54.470640,22.40298
2021-04-26 15:24:54.486270,20.95978
2021-04-26 15:24:54.501890,18.31812
2021-04-26 15:24:54.517520,15.13715
2021-04-26 15:24:54.533140,11.99673
2021-04-26 15:24:54.548770,9.267822
2021-04-26 15:24:54.564390,7.04068
2021-04-26 15:24:54.580020,5.177765
2021-04-26 15:24:54.595650,3.442871
2021-04-26 15:24:54.611270,1.697632
2021-04-26 15:24:54.626900,0.001037598
2021-04-26 15:24:54.642520,-1.451019
2021-04-26 15:24:54.658150,-2.448151
2021-04-26 15:24:54.673770,-2.994263
2021-04-26 15:24:54.689400,-3.35379
2021-04-26 15:24:54.705030,-4.015015
2021-04-26 15:24:54.720650,-5.508179
2021-04-26 15:24:54.736280,-8.259369
2021-04-26 15:24:54.751900,-12.43314
2021-04-26 15:24:54.767530,-17.87775
2021-04-26 15:24:54.783150,-24.104
2021-04-26 15:24:54.798780,-30.25943
2021-04-26 15:24:54.814410,-35.23981
2021-04-26 15:24:54.830030,-37.8558
2021-04-26 15:24:54.845660,-37.11667
2021-04-26 15:24:54.861280,-32.56213
2021-04-26 15:24:54.876910,-24.4733
2021-04-26 15:24:54.892530,-13.87885
2021-04-26 15:24:54.908160,-2.28241
2021-04-26 15:24:54.923790,8.703461
2021-04-26 15:24:54.939410,17.73584
2021-04-26 15:24:54.955040,23.99979
2021-04-26 15:24:54.970660,27.27859
2021-04-26 15:24:54.986290,27.89694
2021-04-26 15:24:55.001910,26.53043
2021-04-26 15:24:55.017540,24.05832
2021-04-26 15:24:55.033170,21.30499
2021-04-26 15:24:55.048790,18.85229
2021-04-26 15:24:55.064420,16.89305
2021-04-26 15:24:55.080040,15.26395
2021-04-26 15:24:55.095670,13.54166
2021-04-26 15:24:55.111290,11.33888
2021-04-26 15:24:55.126920,8.532288
2021-04-26 15:24:55.142550,5.288834
2021-04-26 15:24:55.158170,2.012894
2021-04-26 15:24:55.173800,-0.8675079
2021-04-26 15:24:55.189420,-3.156036
2021-04-26 15:24:55.205050,-4.976959
2021-04-26 15:24:55.220670,-6.81485
2021-04-26 15:24:55.236300,-9.365326
2021-04-26 15:24:55.251930,-13.32104
2021-04-26 15:24:55.267550,-19.23183
2021-04-26 15:24:55.283180,-27.24837
2021-04-26 15:24:55.298800,-36.92128
2021-04-26 15:24:55.314430,-47.14679
2021-04-26 15:24:55.330060,-56.15585
2021-04-26 15:24:55.345680,-61.8141
2021-04-26 15:24:55.361310,-62.27202
2021-04-26 15:24:55.376930,-56.5883
2021-04-26 15:24:55.392560,-45.32393
2021-04-26 15:24:55.408180,-30.54735
2021-04-26 15:24:55.423810,-15.42128
2021-04-26 15:24:55.439440,-3.146271
2021-04-26 15:24:55.455060,4.164444
2021-04-26 15:24:55.470690,6.222168
2021-04-26 15:24:55.486310,4.584946
2021-04-26 15:24:55.501940,1.81723
2021-04-26 15:24:55.517560,0.2972565
2021-04-26 15:24:55.533190,1.039978
2021-04-26 15:24:55.548820,3.400787
2021-04-26 15:24:55.564440,5.603363
2021-04-26 15:24:55.580070,5.939728
2021-04-26 15:24:55.595690,3.764099
2021-04-26 15:24:55.611320,-0.1530609
2021-04-26 15:24:55.626940,-4.126244
2021-04-26 15:24:55.642570,-6.699898
2021-04-26 15:24:55.658200,-7.458549
2021-04-26 15:24:55.673820,-7.248062
2021-04-26 15:24:55.689450,-7.44001
2021-04-26 15:24:55.705070,-8.937622
2021-04-26 15:24:55.720700,-11.491
2021-04-26 15:24:55.736320,-13.85578
2021-04-26 15:24:55.751950,-14.71101
2021-04-26 15:24:55.767580,-13.72225
2021-04-26 15:24:55.783200,-11.97543
2021-04-26 15:24:55.798830,-11.38766
2021-04-26 15:24:55.814450,-13.486
2021-04-26 15:24:55.830080,-18.20916
2021-04-26 15:24:55.845700,-23.54023
2021-04-26 15:24:55.861330,-26.30898
2021-04-26 15:24:55.876960,-23.75135
2021-04-26 15:24:55.892580,-14.88283
2021-04-26 15:24:55.908210,-1.007439
2021-04-26 15:24:55.923830,14.89745
2021-04-26 15:24:55.939460,29.56818
2021-04-26 15:24:55.955080,40.83935
2021-04-26 15:24:55.970710,48.24419
2021-04-26 15:24:55.986340,52.7026
2021-04-26 15:24:56.001960,55.60395
2021-04-26 15:24:56.017590,57.8757
2021-04-26 15:24:56.033210,59.54558
2021-04-26 15:24:56.048840,59.99709
2021-04-26 15:24:56.064460,58.57931
2021-04-26 15:24:56.080090,55.19418
2021-04-26 15:24:56.095720,50.46503
2021-04-26 15:24:56.111340,45.49621
2021-04-26 15:24:56.126970,41.29234
2021-04-26 15:24:56.142590,38.29222
2021-04-26 15:24:56.158220,36.23568
2021-04-26 15:24:56.173840,34.38347
2021-04-26 15:24:56.189470,32.01216
2021-04-26 15:24:56.205100,28.82296
2021-04-26 15:24:56.220720,25.05056
2021-04-26 15:24:56.236350,21.2578
2021-04-26 15:24:56.251970,17.86693
2021-04-26 15:24:56.267600,14.81538
2021-04-26 15:24:56.283220,11.46601
2021-04-26 15:24:56.298850,6.974358
2021-04-26 15:24:56.314480,0.8566971
2021-04-26 15:24:56.330100,-6.541496
2021-04-26 15:24:56.345730,-13.9811
2021-04-26 15:24:56.361350,-19.65305
2021-04-26 15:24:56.376980,-21.87588
2021-04-26 15:24:56.392600,-19.71102
2021-04-26 15:24:56.408230,-13.29494
2021-04-26 15:24:56.423860,-3.797287
2021-04-26 15:24:56.439480,7.037636
2021-04-26 15:24:56.455110,17.45119
2021-04-26 15:24:56.470730,26.09294
2021-04-26 15:24:56.486360,32.26014
2021-04-26 15:24:56.501980,35.83964
2021-04-26 15:24:56.517610,37.12164
2021-04-26 15:24:56.533240,36.53968
2021-04-26 15:24:56.548860,34.54455
2021-04-26 15:24:56.564490,31.48511
2021-04-26 15:24:56.580110,27.65418
2021-04-26 15:24:56.595740,23.3224
2021-04-26 15:24:56.611360,18.83134
2021-04-26 15:24:56.626990,14.56593
2021-04-26 15:24:56.642620,10.89602
2021-04-26 15:24:56.658240,8.036919
2021-04-26 15:24:56.673870,5.936378
2021-04-26 15:24:56.689490,4.328583
2021-04-26 15:24:56.705120,2.81311
2021-04-26 15:24:56.720740,1.036743
2021-04-26 15:24:56.736370,-1.253769
2021-04-26 15:24:56.752000,-4.180527
2021-04-26 15:24:56.767620,-7.838287
2021-04-26 15:24:56.783250,-12.33828
2021-04-26 15:24:56.798870,-17.76311
2021-04-26 15:24:56.814500,-24.02904
2021-04-26 15:24:56.830120,-30.68368
2021-04-26 15:24:56.845750,-36.79137
2021-04-26 15:24:56.861380,-41.037
2021-04-26 15:24:56.877000,-42.05106
2021-04-26 15:24:56.892630,-38.92384
2021-04-26 15:24:56.908250,-31.55698
2021-04-26 15:24:56.923880,-20.83618
2021-04-26 15:24:56.939500,-8.343674
2021-04-26 15:24:56.955130,4.105087
2021-04-26 15:24:56.970760,15.01147
2021-04-26 15:24:56.986380,23.50728
2021-04-26 15:24:57.002010,29.40172
2021-04-26 15:24:57.017630,33.00038
2021-04-26 15:24:57.033260,34.80463
2021-04-26 15:24:57.048880,35.3035
2021-04-26 15:24:57.064510,34.83359
2021-04-26 15:24:57.080140,33.65907
2021-04-26 15:24:57.095760,32.02631
2021-04-26 15:24:57.111390,30.20564
2021-04-26 15:24:57.127010,28.43748
2021-04-26 15:24:57.142640,26.89549
2021-04-26 15:24:57.158260,25.60988
2021-04-26 15:24:57.173890,24.49713
2021-04-26 15:24:57.189520,23.4234
2021-04-26 15:24:57.205140,22.26041
2021-04-26 15:24:57.220770,20.94954
2021-04-26 15:24:57.236390,19.49928
2021-04-26 15:24:57.252020,17.82521
2021-04-26 15:24:57.267640,15.5696
2021-04-26 15:24:57.283270,11.97787
2021-04-26 15:24:57.298900,6.040527
2021-04-26 15:24:57.314520,-3.076935
2021-04-26 15:24:57.330150,-15.37663
2021-04-26 15:24:57.345770,-29.59293
2021-04-26 15:24:57.361400,-43.28224
2021-04-26 15:24:57.377020,-53.46482
2021-04-26 15:24:57.392650,-57.726
2021-04-26 15:24:57.408280,-55.12487
2021-04-26 15:24:57.423900,-46.51326
2021-04-26 15:24:57.439530,-34.09389
2021-04-26 15:24:57.455150,-20.51202
2021-04-26 15:24:57.470780,-7.822235
2021-04-26 15:24:57.486410,2.964828
2021-04-26 15:24:57.502030,11.77281
2021-04-26 15:24:57.517660,18.89595
2021-04-26 15:24:57.533280,24.43483
2021-04-26 15:24:57.548910,28.09656
2021-04-26 15:24:57.564530,29.44597
2021-04-26 15:24:57.580160,28.31284
2021-04-26 15:24:57.595790,25.20685
2021-04-26 15:24:57.611410,21.2485
2021-04-26 15:24:57.627040,17.76639
2021-04-26 15:24:57.642660,15.74075
2021-04-26 15:24:57.658290,15.35698
2021-04-26 15:24:57.673910,15.93396
2021-04-26 15:24:57.689540,16.3407
2021-04-26 15:24:57.705170,15.58629
2021-04-26 15:24:57.720790,13.36777
2021-04-26 15:24:57.736420,10.22108
2021-04-26 15:24:57.752040,7.220444
2021-04-26 15:24:57.767670,5.316254
2021-04-26 15:24:57.783290,4.78038
2021-04-26 15:24:57.798920,4.985611
2021-04-26 15:24:57.814550,4.657318
2021-04-26 15:24:57.830170,2.543411
2021-04-26 15:24:57.845800,-2.002808
2021-04-26 15:24:57.861420,-8.765015
2021-04-26 15:24:57.877050,-16.79257
2021-04-26 15:24:57.892670,-24.79842
2021-04-26 15:24:57.908300,-31.55693
2021-04-26 15:24:57.923930,-36.13438
2021-04-26 15:24:57.939550,-37.89224
2021-04-26 15:24:57.955180,-36.51086
2021-04-26 15:24:57.970800,-31.99692
2021-04-26 15:24:57.986430,-24.73279
2021-04-26 15:24:58.002050,-15.46254
2021-04-26 15:24:58.017680,-5.177429
2021-04-26 15:24:58.033310,5.102585
2021-04-26 15:24:58.048930,14.49203
2021-04-26 15:24:58.064560,22.35715
2021-04-26 15:24:58.080180,28.23242
2021-04-26 15:24:58.095810,31.778
2021-04-26 15:24:58.111430,32.81029
2021-04-26 15:24:58.127060,31.44225
2021-04-26 15:24:58.142690,28.21606
2021-04-26 15:24:58.158310,24.10132
2021-04-26 15:24:58.173940,20.19672
2021-04-26 15:24:58.189560,17.37584
2021-04-26 15:24:58.205190,15.92589
2021-04-26 15:24:58.220810,15.49117
2021-04-26 15:24:58.236440,15.28951
2021-04-26 15:24:58.252070,14.55345
2021-04-26 15:24:58.267690,12.90871
2021-04-26 15:24:58.283320,10.53084
2021-04-26 15:24:58.298940,8.014038
2021-04-26 15:24:58.314570,5.966797
2021-04-26 15:24:58.330190,4.645279
2021-04-26 15:24:58.345820,3.743195
2021-04-26 15:24:58.361450,2.592804
2021-04-26 15:24:58.377070,0.4586792
2021-04-26 15:24:58.392700,-3.094498
2021-04-26 15:24:58.408320,-8.030792
2021-04-26 15:24:58.423950,-13.94092
2021-04-26 15:24:58.439570,-20.23631
2021-04-26 15:24:58.455200,-26.30305
2021-04-26 15:24:58.470830,-31.539
2021-04-26 15:24:58.486450,-35.31194
2021-04-26 15:24:58.502080,-36.89151
2021-04-26 15:24:58.517700,-35.59363
2021-04-26 15:24:58.533330,-31.04251
2021-04-26 15:24:58.548950,-23.40843
2021-04-26 15:24:58.564580,-13.50253
2021-04-26 15:24:58.580210,-2.607834
2021-04-26 15:24:58.595830,7.862762
2021-04-26 15:24:58.611460,16.71548
2021-04-26 15:24:58.627080,23.16173
2021-04-26 15:24:58.642710,26.89484
2021-04-26 15:24:58.658330,28.02704
2021-04-26 15:24:58.673960,26.97005
2021-04-26 15:24:58.689590,24.37248
2021-04-26 15:24:58.705210,20.99295
2021-04-26 15:24:58.720840,17.61555
2021-04-26 15:24:58.736460,14.88251
2021-04-26 15:24:58.752090,13.15639
2021-04-26 15:24:58.767710,12.42519
2021-04-26 15:24:58.783340,12.34108
2021-04-26 15:24:58.798970,12.32382
2021-04-26 15:24:58.814590,11.82256
2021-04-26 15:24:58.830220,10.5309
2021-04-26 15:24:58.845840,8.478485
2021-04-26 15:24:58.861470,6.001099
2021-04-26 15:24:58.877090,3.495239
2021-04-26 15:24:58.892720,1.205811
2021-04-26 15:24:58.908350,-0.9503784
2021-04-26 15:24:58.923970,-3.349335
2021-04-26 15:24:58.939600,-6.519867
2021-04-26 15:24:58.955220,-10.90065
2021-04-26 15:24:58.970850,-16.64066
2021-04-26 15:24:58.986470,-23.49635
2021-04-26 15:24:59.002100,-30.73442
2021-04-26 15:24:59.017730,-37.24664
2021-04-26 15:24:59.033350,-41.67195
2021-04-26 15:24:59.048980,-42.75717
2021-04-26 15:24:59.064600,-39.73216
2021-04-26 15:24:59.080230,-32.66151
2021-04-26 15:24:59.095850,-22.4986
2021-04-26 15:24:59.111480,-10.84981
2021-04-26 15:24:59.127110,0.533783
2021-04-26 15:24:59.142730,10.32513
2021-04-26 15:24:59.158360,17.92456
2021-04-26 15:24:59.173980,23.39331
2021-04-26 15:24:59.189610,27.1152
2021-04-26 15:24:59.205230,29.36165
2021-04-26 15:24:59.220860,30.08673
2021-04-26 15:24:59.236490,29.04437
2021-04-26 15:24:59.252110,26.15315
2021-04-26 15:24:59.267740,21.80887
2021-04-26 15:24:59.283360,16.95554
2021-04-26 15:24:59.298990,12.77516
2021-04-26 15:24:59.314610,10.2
2021-04-26 15:24:59.330240,9.468079
2021-04-26 15:24:59.345870,10.02632
2021-04-26 15:24:59.361490,10.8615
2021-04-26 15:24:59.377120,11.01935
2021-04-26 15:24:59.392740,10.0762
2021-04-26 15:24:59.408370,8.28064
2021-04-26 15:24:59.423990,6.25708
2021-04-26 15:24:59.439620,4.516571
2021-04-26 15:24:59.455250,3.115555
2021-04-26 15:24:59.470870,1.592316
2021-04-26 15:24:59.486500,-0.763382
2021-04-26 15:24:59.502120,-4.480804
2021-04-26 15:24:59.517750,-9.682877
2021-04-26 15:24:59.533370,-16.04688
2021-04-26 15:24:59.549000,-22.9928
2021-04-26 15:24:59.564630,-29.89719
2021-04-26 15:24:59.580250,-36.14931
2021-04-26 15:24:59.595880,-41.11482
2021-04-26 15:24:59.611500,-44.08542
2021-04-26 15:24:59.627130,-44.3441
2021-04-26 15:24:59.642750,-41.39124
2021-04-26 15:24:59.658380,-35.20158
2021-04-26 15:24:59.674010,-26.39613
2021-04-26 15:24:59.689630,-16.16452
2021-04-26 15:24:59.705260,-5.946274
2021-04-26 15:24:59.720880,2.977463
2021-04-26 15:24:59.736510,9.818283
2021-04-26 15:24:59.752140,14.38818
2021-04-26 15:24:59.767760,16.97932
2021-04-26 15:24:59.783390,18.11018
2021-04-26 15:24:59.799010,18.31876
2021-04-26 15:24:59.814640,18.06789
2021-04-26 15:24:59.830260,17.74867
2021-04-26 15:24:59.845890,17.73068
2021-04-26 15:24:59.861520,18.30579
2021-04-26 15:24:59.877140,19.60658
2021-04-26 15:24:59.892770,21.48853
2021-04-26 15:24:59.908390,23.53218
2021-04-26 15:24:59.924020,25.1169
2021-04-26 15:24:59.939640,25.66226
2021-04-26 15:24:59.955270,24.85274
2021-04-26 15:24:59.970900,22.74113
2021-04-26 15:24:59.986520,19.73137
2021-04-26 15:25:00.002150,16.3925
2021-04-26 15:25:00.017770,13.23843
2021-04-26 15:25:00.033400,10.4957
2021-04-26 15:25:00.049020,8.083496
2021-04-26 15:25:00.064650,5.610092
2021-04-26 15:25:00.080280,2.581833
2021-04-26 15:25:00.095900,-1.414841
2021-04-26 15:25:00.111530,-6.557419
2021-04-26 15:25:00.127150,-12.69545
2021-04-26 15:25:00.142780,-19.36803
2021-04-26 15:25:00.158400,-25.82617
2021-04-26 15:25:00.174030,-31.14278
2021-04-26 15:25:00.189660,-34.3033
2021-04-26 15:25:00.205280,-34.37624
2021-04-26 15:25:00.220910,-30.74654
2021-04-26 15:25:00.236530,-23.34196
2021-04-26 15:25:00.252160,-12.81725
2021-04-26 15:25:00.267780,-0.4650879
2021-04-26 15:25:00.283410,12.05469
2021-04-26 15:25:00.299040,23.1915
2021-04-26 15:25:00.314660,31.89517
2021-04-26 15:25:00.330290,37.84503
2021-04-26 15:25:00.345910,41.34859
2021-04-26 15:25:00.361540,43.02061
2021-04-26 15:25:00.377160,43.43454
2021-04-26 15:25:00.392790,42.91721
2021-04-26 15:25:00.408420,41.60405
2021-04-26 15:25:00.424040,39.57428
2021-04-26 15:25:00.439670,37.08107
2021-04-26 15:25:00.455290,34.54382
2021-04-26 15:25:00.470920,32.45813
2021-04-26 15:25:00.486540,31.15245
2021-04-26 15:25:00.502170,30.61748
2021-04-26 15:25:00.517800,30.48738
2021-04-26 15:25:00.533420,30.14259
2021-04-26 15:25:00.549050,29.00371
2021-04-26 15:25:00.564670,26.71057
2021-04-26 15:25:00.580300,23.30431
2021-04-26 15:25:00.595920,19.13936
2021-04-26 15:25:00.611550,14.74492
2021-04-26 15:25:00.627180,10.67415
2021-04-26 15:25:00.642800,7.220795
2021-04-26 15:25:00.658430,4.40094
2021-04-26 15:25:00.674050,1.897247
2021-04-26 15:25:00.689680,-0.7539673
2021-04-26 15:25:00.705300,-4.017288
2021-04-26 15:25:00.720930,-8.183075
2021-04-26 15:25:00.736560,-13.24734
2021-04-26 15:25:00.752180,-18.90427
2021-04-26 15:25:00.767810,-24.51498
2021-04-26 15:25:00.783430,-29.16428
2021-04-26 15:25:00.799060,-31.78319
2021-04-26 15:25:00.814680,-31.42989
2021-04-26 15:25:00.830310,-27.59744
2021-04-26 15:25:00.845940,-20.58333
2021-04-26 15:25:00.861560,-11.52666
2021-04-26 15:25:00.877190,-2.149597
2021-04-26 15:25:00.892810,5.813492
2021-04-26 15:25:00.908440,11.28937
2021-04-26 15:25:00.924060,14.16376
2021-04-26 15:25:00.939690,15.18489
2021-04-26 15:25:00.955320,15.31497
2021-04-26 15:25:00.970940,15.06403
2021-04-26 15:25:00.986570,14.21611
2021-04-26 15:25:01.002190,12.05938
2021-04-26 15:25:01.017820,8.031708
2021-04-26 15:25:01.033440,2.257332
2021-04-26 15:25:01.049070,-4.27977
2021-04-26 15:25:01.064700,-10.12689
2021-04-26 15:25:01.080320,-13.84009
2021-04-26 15:25:01.095950,-14.5354
2021-04-26 15:25:01.111570,-12.14767
2021-04-26 15:25:01.127200,-7.31723
2021-04-26 15:25:01.142820,-1.239021
2021-04-26 15:25:01.158450,4.662338
2021-04-26 15:25:01.174080,8.999886
2021-04-26 15:25:01.189700,10.79687
2021-04-26 15:25:01.205330,9.74662
2021-04-26 15:25:01.220950,6.38623
2021-04-26 15:25:01.236580,1.868004
2021-04-26 15:25:01.252200,-2.555092
2021-04-26 15:25:01.267830,-6.102791
2021-04-26 15:25:01.283460,-8.798172
2021-04-26 15:25:01.299080,-11.35103
2021-04-26 15:25:01.314710,-14.69213
2021-04-26 15:25:01.330330,-19.44927
2021-04-26 15:25:01.345960,-25.7246
2021-04-26 15:25:01.361580,-33.05915
2021-04-26 15:25:01.377210,-40.65773
2021-04-26 15:25:01.392840,-47.53491
2021-04-26 15:25:01.408460,-52.5874
2021-04-26 15:25:01.424090,-54.75172
2021-04-26 15:25:01.439710,-53.145
2021-04-26 15:25:01.455340,-47.38514
2021-04-26 15:25:01.470960,-37.84322
2021-04-26 15:25:01.486590,-25.71535
2021-04-26 15:25:01.502220,-12.77057
2021-04-26 15:25:01.517840,-0.8385696
2021-04-26 15:25:01.533470,8.684914
2021-04-26 15:25:01.549090,15.18473
2021-04-26 15:25:01.564720,18.77122
2021-04-26 15:25:01.580340,20.06608
2021-04-26 15:25:01.595970,19.85553
2021-04-26 15:25:01.611600,18.84726
2021-04-26 15:25:01.627220,17.57529
2021-04-26 15:25:01.642850,16.45429
2021-04-26 15:25:01.658470,15.77156
2021-04-26 15:25:01.674100,15.68657
2021-04-26 15:25:01.689720,16.2014
2021-04-26 15:25:01.705350,17.05766
2021-04-26 15:25:01.720980,17.83678
2021-04-26 15:25:01.736600,18.05476
2021-04-26 15:25:01.752230,17.43598
2021-04-26 15:25:01.767850,16.04118
2021-04-26 15:25:01.783480,14.26192
2021-04-26 15:25:01.799100,12.5913
2021-04-26 15:25:01.814730,11.31881
2021-04-26 15:25:01.830360,10.37213
2021-04-26 15:25:01.845980,9.342754
2021-04-26 15:25:01.861610,7.759743
2021-04-26 15:25:01.877230,5.306751
2021-04-26 15:25:01.892860,1.946587
2021-04-26 15:25:01.908480,-2.163692
2021-04-26 15:25:01.924110,-6.808077
2021-04-26 15:25:01.939740,-11.75488
2021-04-26 15:25:01.955360,-16.64626
2021-04-26 15:25:01.970990,-20.82924
2021-04-26 15:25:01.986610,-23.35991
2021-04-26 15:25:02.002240,-23.23103
2021-04-26 15:25:02.017860,-19.81639
2021-04-26 15:25:02.033490,-13.29462
2021-04-26 15:25:02.049120,-4.713595
2021-04-26 15:25:02.064740,4.311564
2021-04-26 15:25:02.080370,12.21699
2021-04-26 15:25:02.095990,18.03004
2021-04-26 15:25:02.111620,21.57958
2021-04-26 15:25:02.127240,23.2017
2021-04-26 15:25:02.142870,23.344
2021-04-26 15:25:02.158500,22.22708
2021-04-26 15:25:02.174120,19.84136
2021-04-26 15:25:02.189750,16.21855
2021-04-26 15:25:02.205370,11.7767
2021-04-26 15:25:02.221000,7.327252
2021-04-26 15:25:02.236620,3.843702
2021-04-26 15:25:02.252250,1.988298
2021-04-26 15:25:02.267880,1.762591
2021-04-26 15:25:02.283500,2.540509
2021-04-26 15:25:02.299130,3.392904
2021-04-26 15:25:02.314750,3.575048
2021-04-26 15:25:02.330380,2.843012
2021-04-26 15:25:02.346000,1.459377
2021-04-26 15:25:02.361630,-0.08943748
2021-04-26 15:25:02.377260,-1.420937
2021-04-26 15:25:02.392880,-2.399939
2021-04-26 15:25:02.408510,-3.124529
2021-04-26 15:25:02.424130,-3.776089
2021-04-26 15:25:02.439760,-4.510422
2021-04-26 15:25:02.455390,-5.479416
2021-04-26 15:25:02.471010,-6.881348
2021-04-26 15:25:02.486640,-9.021919
2021-04-26 15:25:02.502260,-12.23144
2021-04-26 15:25:02.517890,-16.67148
2021-04-26 15:25:02.533510,-22.15198
2021-04-26 15:25:02.549140,-27.99774
2021-04-26 15:25:02.564770,-33.1268
2021-04-26 15:25:02.580390,-36.30573
2021-04-26 15:25:02.596020,-36.55652
2021-04-26 15:25:02.611640,-33.48262
2021-04-26 15:25:02.627270,-27.42326
2021-04-26 15:25:02.642890,-19.36885
2021-04-26 15:25:02.658520,-10.53292
2021-04-26 15:25:02.674150,-1.994446
2021-04-26 15:25:02.689770,5.596428
2021-04-26 15:25:02.705400,12.00515
2021-04-26 15:25:02.721020,17.162
2021-04-26 15:25:02.736650,20.95444
2021-04-26 15:25:02.752270,23.14342
2021-04-26 15:25:02.767900,23.52357
2021-04-26 15:25:02.783530,22.19476
2021-04-26 15:25:02.799150,19.72267
2021-04-26 15:25:02.814780,17.04352
2021-04-26 15:25:02.830400,15.11074
2021-04-26 15:25:02.846030,14.44804
2021-04-26 15:25:02.861650,14.94498
2021-04-26 15:25:02.877280,15.92067
2021-04-26 15:25:02.892910,16.50863
2021-04-26 15:25:02.908530,16.09229
2021-04-26 15:25:02.924160,14.51392
2021-04-26 15:25:02.939780,12.05544
2021-04-26 15:25:02.955410,9.230888
2021-04-26 15:25:02.971030,6.506172
2021-04-26 15:25:02.986660,4.121407
2021-04-26 15:25:03.002290,2.073837
2021-04-26 15:25:03.017910,0.1549301
2021-04-26 15:25:03.033540,-1.994843
2021-04-26 15:25:03.049160,-4.794273
2021-04-26 15:25:03.064790,-8.666534
2021-04-26 15:25:03.080410,-13.94967
2021-04-26 15:25:03.096040,-20.70227
2021-04-26 15:25:03.111670,-28.60765
2021-04-26 15:25:03.127290,-36.89522
2021-04-26 15:25:03.142920,-44.46524
2021-04-26 15:25:03.158540,-50.15321
2021-04-26 15:25:03.174170,-53.06736
2021-04-26 15:25:03.189790,-52.79959
2021-04-26 15:25:03.205420,-49.55142
2021-04-26 15:25:03.221050,-43.98021
2021-04-26 15:25:03.236670,-36.97887
2021-04-26 15:25:03.252300,-29.40908
2021-04-26 15:25:03.267920,-21.93468
2021-04-26 15:25:03.283550,-14.97521
2021-04-26 15:25:03.299170,-8.810722
2021-04-26 15:25:03.314800,-3.681992
2021-04-26 15:25:03.330430,0.2323608
2021-04-26 15:25:03.346050,2.848259
2021-04-26 15:25:03.361680,4.331131
2021-04-26 15:25:03.377300,5.10302
2021-04-26 15:25:03.392930,5.699203
2021-04-26 15:25:03.408550,6.592697
2021-04-26 15:25:03.424180,7.971542
2021-04-26 15:25:03.439810,9.656769
2021-04-26 15:25:03.455430,11.19932
2021-04-26 15:25:03.471060,12.12735
2021-04-26 15:25:03.486680,12.11614
2021-04-26 15:25:03.502310,11.16978
2021-04-26 15:25:03.517930,9.609596
2021-04-26 15:25:03.533560,7.887703
2021-04-26 15:25:03.549190,6.38446
2021-04-26 15:25:03.564810,5.212158
2021-04-26 15:25:03.580440,4.141754
2021-04-26 15:25:03.596060,2.715622
2021-04-26 15:25:03.611690,0.4858246
2021-04-26 15:25:03.627310,-2.781769
2021-04-26 15:25:03.642940,-6.960617
2021-04-26 15:25:03.658570,-11.6187
2021-04-26 15:25:03.674190,-16.17996
2021-04-26 15:25:03.689820,-20.06421
2021-04-26 15:25:03.705440,-22.78465
2021-04-26 15:25:03.721070,-23.97177
2021-04-26 15:25:03.736690,-23.32451
2021-04-26 15:25:03.752320,-20.63889
2021-04-26 15:25:03.767950,-15.95166
2021-04-26 15:25:03.783570,-9.54509
2021-04-26 15:25:03.799200,-2.023376
2021-04-26 15:25:03.814820,5.741608
2021-04-26 15:25:03.830450,12.81969
2021-04-26 15:25:03.846070,18.33126
2021-04-26 15:25:03.861700,21.52134
2021-04-26 15:25:03.877330,21.88322
2021-04-26 15:25:03.892950,19.27832
2021-04-26 15:25:03.908580,14.1937
2021-04-26 15:25:03.924200,7.908981
2021-04-26 15:25:03.939830,2.372818
2021-04-26 15:25:03.955450,-0.3597107
2021-04-26 15:25:03.971080,1.070572
2021-04-26 15:25:03.986710,6.629456
2021-04-26 15:25:04.002330,14.70435
2021-04-26 15:25:04.017960,22.63354
2021-04-26 15:25:04.033580,27.64439
2021-04-26 15:25:04.049210,27.90497
2021-04-26 15:25:04.064830,23.14796
2021-04-26 15:25:04.080460,14.62841
2021-04-26 15:25:04.096090,4.567291
2021-04-26 15:25:04.111710,-4.810822
2021-04-26 15:25:04.127340,-11.99245
2021-04-26 15:25:04.142960,-16.58669
2021-04-26 15:25:04.158590,-19.24132
2021-04-26 15:25:04.174210,-21.23152
2021-04-26 15:25:04.189840,-23.87851
2021-04-26 15:25:04.205470,-27.97585
2021-04-26 15:25:04.221090,-33.53828
2021-04-26 15:25:04.236720,-39.74677
2021-04-26 15:25:04.252340,-45.24701
2021-04-26 15:25:04.267970,-48.70366
2021-04-26 15:25:04.283590,-49.26495
2021-04-26 15:25:04.299220,-46.83269
2021-04-26 15:25:04.314850,-42.0489
2021-04-26 15:25:04.330470,-35.91264
2021-04-26 15:25:04.346100,-29.35709
2021-04-26 15:25:04.361720,-22.98439
2021-04-26 15:25:04.377350,-16.95979
2021-04-26 15:25:04.392970,-11.22034
2021-04-26 15:25:04.408600,-5.713928
2021-04-26 15:25:04.424230,-0.6096039
2021-04-26 15:25:04.439850,3.74794
2021-04-26 15:25:04.455480,6.982788
2021-04-26 15:25:04.471100,8.920662
2021-04-26 15:25:04.486730,9.660568
2021-04-26 15:25:04.502350,9.516388
2021-04-26 15:25:04.517980,8.914429
2021-04-26 15:25:04.533610,8.269424
2021-04-26 15:25:04.549230,7.909904
2021-04-26 15:25:04.564860,8.081802
2021-04-26 15:25:04.580480,8.913567
2021-04-26 15:25:04.596110,10.3699
2021-04-26 15:25:04.611740,12.19132
2021-04-26 15:25:04.627360,13.94322
2021-04-26 15:25:04.642990,15.14754
2021-04-26 15:25:04.658610,15.48027
2021-04-26 15:25:04.674240,14.86114
2021-04-26 15:25:04.689860,13.38065
2021-04-26 15:25:04.705490,11.15544
2021-04-26 15:25:04.721120,8.137787
2021-04-26 15:25:04.736740,4.122269
2021-04-26 15:25:04.752370,-1.061127
2021-04-26 15:25:04.767990,-7.24501
2021-04-26 15:25:04.783620,-13.73685
2021-04-26 15:25:04.799240,-19.34667
2021-04-26 15:25:04.814870,-22.70996
2021-04-26 15:25:04.830500,-22.8403
2021-04-26 15:25:04.846120,-19.48962
2021-04-26 15:25:04.861750,-13.30786
2021-04-26 15:25:04.877370,-5.586983
2021-04-26 15:25:04.893000,2.297371
2021-04-26 15:25:04.908620,9.340652
2021-04-26 15:25:04.924250,15.16209
2021-04-26 15:25:04.939880,19.85555
2021-04-26 15:25:04.955500,23.6347
2021-04-26 15:25:04.971130,26.5279
2021-04-26 15:25:04.986750,28.31376
2021-04-26 15:25:05.002380,28.69041
2021-04-26 15:25:05.018000,27.61758
2021-04-26 15:25:05.033630,25.49245
2021-04-26 15:25:05.049260,23.04875
2021-04-26 15:25:05.064880,21.04874
2021-04-26 15:25:05.080510,19.95892
2021-04-26 15:25:05.096130,19.78503
2021-04-26 15:25:05.111760,20.12347
2021-04-26 15:25:05.127380,20.3909
2021-04-26 15:25:05.143010,20.09262
2021-04-26 15:25:05.158640,18.98515
2021-04-26 15:25:05.174260,17.11532
2021-04-26 15:25:05.189890,14.78869
2021-04-26 15:25:05.205510,12.45955
2021-04-26 15:25:05.221140,10.5268
2021-04-26 15:25:05.236760,9.079659
2021-04-26 15:25:05.252390,7.697449
2021-04-26 15:25:05.268020,5.492661
2021-04-26 15:25:05.283640,1.431328
2021-04-26 15:25:05.299270,-5.241455
2021-04-26 15:25:05.314890,-14.46688
2021-04-26 15:25:05.330520,-25.29185
2021-04-26 15:25:05.346140,-36.03112
2021-04-26 15:25:05.361770,-44.88378
2021-04-26 15:25:05.377400,-50.43298
2021-04-26 15:25:05.393020,-52.02137
2021-04-26 15:25:05.408650,-49.72899
2021-04-26 15:25:05.424270,-44.11031
2021-04-26 15:25:05.439900,-35.9549
2021-04-26 15:25:05.455520,-26.11395
2021-04-26 15:25:05.471150,-15.48959
2021-04-26 15:25:05.486780,-5.045464
2021-04-26 15:25:05.502400,4.240959
2021-04-26 15:25:05.518030,11.58367
2021-04-26 15:25:05.533650,16.53986
2021-04-26 15:25:05.549280,19.15466
2021-04-26 15:25:05.564900,19.89383
2021-04-26 15:25:05.580530,19.48278
2021-04-26 15:25:05.596160,18.65772
2021-04-26 15:25:05.611780,18.0242
2021-04-26 15:25:05.627410,17.88248
2021-04-26 15:25:05.643030,18.22621
2021-04-26 15:25:05.658660,18.81557
2021-04-26 15:25:05.674280,19.29713
2021-04-26 15:25:05.689910,19.30381
2021-04-26 15:25:05.705540,18.59501
2021-04-26 15:25:05.721160,17.106
2021-04-26 15:25:05.736790,14.93889
2021-04-26 15:25:05.752410,12.31354
2021-04-26 15:25:05.768040,9.488762
2021-04-26 15:25:05.783660,6.726677
2021-04-26 15:25:05.799290,4.185905
2021-04-26 15:25:05.814920,1.909546
2021-04-26 15:25:05.830540,-0.233078
2021-04-26 15:25:05.846170,-2.467812
2021-04-26 15:25:05.861790,-5.112839
2021-04-26 15:25:05.877420,-8.433052
2021-04-26 15:25:05.893040,-12.64542
2021-04-26 15:25:05.908670,-17.82352
2021-04-26 15:25:05.924300,-23.82307
2021-04-26 15:25:05.939920,-30.16878
2021-04-26 15:25:05.955550,-35.97123
2021-04-26 15:25:05.971170,-40.02884
2021-04-26 15:25:05.986800,-41.13038
2021-04-26 15:25:06.002420,-38.511
2021-04-26 15:25:06.018050,-32.18945
2021-04-26 15:25:06.033680,-23.06589
2021-04-26 15:25:06.049300,-12.61404
2021-04-26 15:25:06.064930,-2.352257
2021-04-26 15:25:06.080550,6.642258
2021-04-26 15:25:06.096180,13.93309
2021-04-26 15:25:06.111800,19.5532
2021-04-26 15:25:06.127430,23.6758
2021-04-26 15:25:06.143060,26.29685
2021-04-26 15:25:06.158680,27.23696
2021-04-26 15:25:06.174310,26.39078
2021-04-26 15:25:06.189930,24.02116
2021-04-26 15:25:06.205560,20.88321
2021-04-26 15:25:06.221180,17.98675
2021-04-26 15:25:06.236810,16.2061
2021-04-26 15:25:06.252440,15.87056
2021-04-26 15:25:06.268060,16.64994
2021-04-26 15:25:06.283690,17.77988
2021-04-26 15:25:06.299310,18.40598
2021-04-26 15:25:06.314940,18.01805
2021-04-26 15:25:06.330560,16.58653
2021-04-26 15:25:06.346190,14.46114
2021-04-26 15:25:06.361820,12.09933
2021-04-26 15:25:06.377440,9.785118
2021-04-26 15:25:06.393070,7.518814
2021-04-26 15:25:06.408690,5.109863
2021-04-26 15:25:06.424320,2.365204
2021-04-26 15:25:06.439940,-0.8165054
2021-04-26 15:25:06.455570,-4.436172
2021-04-26 15:25:06.471200,-8.513947
2021-04-26 15:25:06.486820,-13.15276
2021-04-26 15:25:06.502450,-18.47126
2021-04-26 15:25:06.518070,-24.38912
2021-04-26 15:25:06.533700,-30.42503
2021-04-26 15:25:06.549320,-35.62093
2021-04-26 15:25:06.564950,-38.73738
2021-04-26 15:25:06.580580,-38.6967
2021-04-26 15:25:06.596200,-34.95052
2021-04-26 15:25:06.611830,-27.79556
2021-04-26 15:25:06.627450,-18.31316
2021-04-26 15:25:06.643080,-8.001648
2021-04-26 15:25:06.658700,1.734665
2021-04-26 15:25:06.674330,9.944977
2021-04-26 15:25:06.689960,16.31059
2021-04-26 15:25:06.705580,20.97919
2021-04-26 15:25:06.721210,24.23746
2021-04-26 15:25:06.736830,26.30339
2021-04-26 15:25:06.752460,27.18284
2021-04-26 15:25:06.768080,26.87737
2021-04-26 15:25:06.783710,25.59466
2021-04-26 15:25:06.799340,23.82829
2021-04-26 15:25:06.814960,22.27916
2021-04-26 15:25:06.830590,21.53282
2021-04-26 15:25:06.846210,21.75097
2021-04-26 15:25:06.861840,22.57848
2021-04-26 15:25:06.877470,23.29176
2021-04-26 15:25:06.893090,23.20144
2021-04-26 15:25:06.908720,21.97949
2021-04-26 15:25:06.924340,19.78242
2021-04-26 15:25:06.939970,17.09927
2021-04-26 15:25:06.955590,14.42035
2021-04-26 15:25:06.971220,12.00019
2021-04-26 15:25:06.986850,9.778748
2021-04-26 15:25:07.002470,7.523285
2021-04-26 15:25:07.018100,5.02906
2021-04-26 15:25:07.033720,2.210938
2021-04-26 15:25:07.049350,-0.9015808
2021-04-26 15:25:07.064970,-4.335022
2021-04-26 15:25:07.080600,-8.26757
2021-04-26 15:25:07.096230,-13.00673
2021-04-26 15:25:07.111850,-18.7602
2021-04-26 15:25:07.127480,-25.42118
2021-04-26 15:25:07.143100,-32.4025
2021-04-26 15:25:07.158730,-38.70877
2021-04-26 15:25:07.174350,-43.20652
2021-04-26 15:25:07.189980,-44.99488
2021-04-26 15:25:07.205610,-43.69238
2021-04-26 15:25:07.221230,-39.5203
2021-04-26 15:25:07.236860,-33.18861
2021-04-26 15:25:07.252480,-25.65847
2021-04-26 15:25:07.268110,-17.89918
2021-04-26 15:25:07.283730,-10.70954
2021-04-26 15:25:07.299360,-4.673187
2021-04-26 15:25:07.314990,-0.2022934
2021-04-26 15:25:07.330610,2.428452
2021-04-26 15:25:07.346240,3.105392
2021-04-26 15:25:07.361860,1.979607
2021-04-26 15:25:07.377490,-0.5240021
2021-04-26 15:25:07.393110,-3.684494
2021-04-26 15:25:07.408740,-6.652771
2021-04-26 15:25:07.424370,-8.669571
2021-04-26 15:25:07.439990,-9.222603
2021-04-26 15:25:07.455620,-8.21357
2021-04-26 15:25:07.471240,-5.914673
2021-04-26 15:25:07.486870,-2.898613
2021-04-26 15:25:07.502490,0.1256638
2021-04-26 15:25:07.518120,2.516747
2021-04-26 15:25:07.533750,3.82473
2021-04-26 15:25:07.549370,3.934319
2021-04-26 15:25:07.565000,3.019775
2021-04-26 15:25:07.580620,1.461121
2021-04-26 15:25:07.596250,-0.3941345
2021-04-26 15:25:07.611870,-2.342384
2021-04-26 15:25:07.627500,-4.436729
2021-04-26 15:25:07.643130,-6.926834
2021-04-26 15:25:07.658750,-10.13308
2021-04-26 15:25:07.674380,-14.23181
2021-04-26 15:25:07.690000,-19.13145
2021-04-26 15:25:07.705630,-24.41077
2021-04-26 15:25:07.721250,-29.3228
2021-04-26 15:25:07.736880,-33.0074
2021-04-26 15:25:07.752510,-34.64054
2021-04-26 15:25:07.768130,-33.66162
2021-04-26 15:25:07.783760,-29.91613
2021-04-26 15:25:07.799380,-23.7136
2021-04-26 15:25:07.815010,-15.742
2021-04-26 15:25:07.830630,-6.911766
2021-04-26 15:25:07.846260,1.867081
2021-04-26 15:25:07.861890,9.87627
2021-04-26 15:25:07.877510,16.614
2021-04-26 15:25:07.893140,21.83625
2021-04-26 15:25:07.908760,25.43986
2021-04-26 15:25:07.924390,27.45121
2021-04-26 15:25:07.940010,27.98137
2021-04-26 15:25:07.955640,27.28405
2021-04-26 15:25:07.971270,25.74969
2021-04-26 15:25:07.986890,23.87655
2021-04-26 15:25:08.002520,22.1882
2021-04-26 15:25:08.018140,21.10798
2021-04-26 15:25:08.033770,20.8465
2021-04-26 15:25:08.049390,21.31594
2021-04-26 15:25:08.065020,22.17831
2021-04-26 15:25:08.080650,22.97922
2021-04-26 15:25:08.096270,23.30091
2021-04-26 15:25:08.111900,22.92988
2021-04-26 15:25:08.127520,21.84972
2021-04-26 15:25:08.143150,20.17578
2021-04-26 15:25:08.158770,18.01645
2021-04-26 15:25:08.174400,15.37258
2021-04-26 15:25:08.190030,12.17591
2021-04-26 15:25:08.205650,8.323034
2021-04-26 15:25:08.221280,3.816055
2021-04-26 15:25:08.236900,-1.284424
2021-04-26 15:25:08.252530,-6.892639
2021-04-26 15:25:08.268150,-12.84537
2021-04-26 15:25:08.283780,-18.88207
2021-04-26 15:25:08.299410,-24.51428
2021-04-26 15:25:08.315030,-28.94326
2021-04-26 15:25:08.330660,-31.20936
2021-04-26 15:25:08.346280,-30.51946
2021-04-26 15:25:08.361910,-26.52703
2021-04-26 15:25:08.377530,-19.57795
2021-04-26 15:25:08.393160,-10.63819
2021-04-26 15:25:08.408790,-0.9787807
2021-04-26 15:25:08.424410,8.229221
2021-04-26 15:25:08.440040,16.13784
2021-04-26 15:25:08.455660,22.31635
2021-04-26 15:25:08.471290,26.64669
2021-04-26 15:25:08.486910,29.17357
2021-04-26 15:25:08.502540,30.05672
2021-04-26 15:25:08.518170,29.58678
2021-04-26 15:25:08.533790,28.22873
2021-04-26 15:25:08.549420,26.63789
2021-04-26 15:25:08.565040,25.46552
2021-04-26 15:25:08.580670,25.19748
2021-04-26 15:25:08.596290,25.90406
2021-04-26 15:25:08.611920,27.13831
2021-04-26 15:25:08.627550,28.05568
2021-04-26 15:25:08.643170,27.73894
2021-04-26 15:25:08.658800,25.60152
2021-04-26 15:25:08.674420,21.6631
2021-04-26 15:25:08.690050,16.64621
2021-04-26 15:25:08.705670,11.64008
2021-04-26 15:25:08.721300,7.636731
2021-04-26 15:25:08.736930,5.079063
2021-04-26 15:25:08.752550,3.635376
2021-04-26 15:25:08.768180,2.441271
2021-04-26 15:25:08.783800,0.5375881
2021-04-26 15:25:08.799430,-2.68405
2021-04-26 15:25:08.815050,-7.287333
2021-04-26 15:25:08.830680,-12.89681
2021-04-26 15:25:08.846310,-18.96986
2021-04-26 15:25:08.861930,-24.98899
2021-04-26 15:25:08.877560,-30.46415
2021-04-26 15:25:08.893180,-34.81102
2021-04-26 15:25:08.908810,-37.35014
2021-04-26 15:25:08.924430,-37.41137
2021-04-26 15:25:08.940060,-34.6526
2021-04-26 15:25:08.955690,-29.30191
2021-04-26 15:25:08.971310,-22.14816
2021-04-26 15:25:08.986940,-14.3048
2021-04-26 15:25:09.002560,-6.77401
2021-04-26 15:25:09.018190,-0.198103
2021-04-26 15:25:09.033810,5.227257
2021-04-26 15:25:09.049440,9.577175
2021-04-26 15:25:09.065070,12.92288
2021-04-26 15:25:09.080690,15.20136
2021-04-26 15:25:09.096320,16.3166
2021-04-26 15:25:09.111940,16.25155
2021-04-26 15:25:09.127570,15.1774
2021-04-26 15:25:09.143190,13.46417
2021-04-26 15:25:09.158820,11.5655
2021-04-26 15:25:09.174450,9.939133
2021-04-26 15:25:09.190070,8.963371
2021-04-26 15:25:09.205700,8.877872
2021-04-26 15:25:09.221320,9.741505
2021-04-26 15:25:09.236950,11.34206
2021-04-26 15:25:09.252570,13.22135
2021-04-26 15:25:09.268200,14.77531
2021-04-26 15:25:09.283830,15.44988
2021-04-26 15:25:09.299450,14.93318
2021-04-26 15:25:09.315080,13.28237
2021-04-26 15:25:09.330700,10.80083
2021-04-26 15:25:09.346330,7.863655
2021-04-26 15:25:09.361950,4.702141
2021-04-26 15:25:09.377580,1.310692
2021-04-26 15:25:09.393210,-2.419575
2021-04-26 15:25:09.408830,-6.611427
2021-04-26 15:25:09.424460,-11.22974
2021-04-26 15:25:09.440080,-16.1383
2021-04-26 15:25:09.455710,-21.10178
2021-04-26 15:25:09.471340,-25.82667
2021-04-26 15:25:09.486960,-29.912
2021-04-26 15:25:09.502590,-32.77702
2021-04-26 15:25:09.518210,-33.75189
2021-04-26 15:25:09.533840,-32.23684
2021-04-26 15:25:09.549460,-27.97922
2021-04-26 15:25:09.565090,-21.23686
2021-04-26 15:25:09.580720,-12.81627
2021-04-26 15:25:09.596340,-3.823708
2021-04-26 15:25:09.611970,4.66748
2021-04-26 15:25:09.627590,11.90588
2021-04-26 15:25:09.643220,17.57702
2021-04-26 15:25:09.658840,21.70273
2021-04-26 15:25:09.674470,24.41617
2021-04-26 15:25:09.690100,25.7918
2021-04-26 15:25:09.705720,25.82093
2021-04-26 15:25:09.721350,24.53995
2021-04-26 15:25:09.736970,22.16113
2021-04-26 15:25:09.752600,19.16153
2021-04-26 15:25:09.768220,16.17233
2021-04-26 15:25:09.783850,13.77995
2021-04-26 15:25:09.799480,12.29955
2021-04-26 15:25:09.815100,11.65012
2021-04-26 15:25:09.830730,11.41292
2021-04-26 15:25:09.846350,11.04353
2021-04-26 15:25:09.861980,10.10467
2021-04-26 15:25:09.877600,8.467999
2021-04-26 15:25:09.893230,6.280632
2021-04-26 15:25:09.908860,3.835361
2021-04-26 15:25:09.924480,1.39241
2021-04-26 15:25:09.940110,-0.9315071
2021-04-26 15:25:09.955730,-3.200558
2021-04-26 15:25:09.971360,-5.621494
2021-04-26 15:25:09.986980,-8.423466
2021-04-26 15:25:10.002610,-11.85051
2021-04-26 15:25:10.018240,-16.09644
2021-04-26 15:25:10.033860,-21.21819
2021-04-26 15:25:10.049490,-27.04092
2021-04-26 15:25:10.065110,-33.04221
2021-04-26 15:25:10.080740,-38.3652
2021-04-26 15:25:10.096360,-41.96121
2021-04-26 15:25:10.111990,-42.88237
2021-04-26 15:25:10.127620,-40.5535
2021-04-26 15:25:10.143240,-35.04675
2021-04-26 15:25:10.158870,-27.02955
2021-04-26 15:25:10.174490,-17.57505
2021-04-26 15:25:10.190120,-7.837364
2021-04-26 15:25:10.205740,1.230179
2021-04-26 15:25:10.221370,9.020309
2021-04-26 15:25:10.237000,15.1968
2021-04-26 15:25:10.252620,19.58979
2021-04-26 15:25:10.268250,22.14556
2021-04-26 15:25:10.283870,22.9031
2021-04-26 15:25:10.299500,22.08351
2021-04-26 15:25:10.315120,20.14997
2021-04-26 15:25:10.330750,17.75203
2021-04-26 15:25:10.346380,15.55289
2021-04-26 15:25:10.362000,14.04187
2021-04-26 15:25:10.377630,13.36398
2021-04-26 15:25:10.393250,13.25249
2021-04-26 15:25:10.408880,13.2044
2021-04-26 15:25:10.424500,12.65888
2021-04-26 15:25:10.440130,11.29741
2021-04-26 15:25:10.455760,9.166962
2021-04-26 15:25:10.471380,6.631222
2021-04-26 15:25:10.487010,4.159622
2021-04-26 15:25:10.502630,2.119049
2021-04-26 15:25:10.518260,0.520134
2021-04-26 15:25:10.533880,-0.9720459
2021-04-26 15:25:10.549510,-2.878876
2021-04-26 15:25:10.565140,-5.746704
2021-04-26 15:25:10.580760,-9.869911
2021-04-26 15:25:10.596390,-15.22637
2021-04-26 15:25:10.612010,-21.48467
2021-04-26 15:25:10.627640,-28.06758
2021-04-26 15:25:10.643260,-34.25718
2021-04-26 15:25:10.658890,-39.27753
2021-04-26 15:25:10.674520,-42.34766
2021-04-26 15:25:10.690140,-42.8227
2021-04-26 15:25:10.705770,-40.35773
2021-04-26 15:25:10.721390,-35.04413
2021-04-26 15:25:10.737020,-27.43272
2021-04-26 15:25:10.752640,-18.45807
2021-04-26 15:25:10.768270,-9.120972
2021-04-26 15:25:10.783900,-0.2564621
2021-04-26 15:25:10.799520,7.576393
2021-04-26 15:25:10.815150,14.11106
2021-04-26 15:25:10.830770,19.21343
2021-04-26 15:25:10.846400,22.77389
2021-04-26 15:25:10.862020,24.69019
2021-04-26 15:25:10.877650,24.96817
2021-04-26 15:25:10.893280,23.80145
2021-04-26 15:25:10.908900,21.66629
2021-04-26 15:25:10.924530,19.17775
2021-04-26 15:25:10.940150,16.8982
2021-04-26 15:25:10.955780,15.12453
2021-04-26 15:25:10.971400,13.84501
2021-04-26 15:25:10.987030,12.75409
2021-04-26 15:25:11.002660,11.53544
2021-04-26 15:25:11.018280,9.973515
2021-04-26 15:25:11.033910,8.04388
2021-04-26 15:25:11.049530,5.917625
2021-04-26 15:25:11.065160,3.787193
2021-04-26 15:25:11.080780,1.777554
2021-04-26 15:25:11.096410,-0.139225
2021-04-26 15:25:11.112040,-2.154213
2021-04-26 15:25:11.127660,-4.615593
2021-04-26 15:25:11.143290,-7.882565
2021-04-26 15:25:11.158910,-12.25348
2021-04-26 15:25:11.174540,-17.82097
2021-04-26 15:25:11.190160,-24.34334
2021-04-26 15:25:11.205790,-31.1953
2021-04-26 15:25:11.221420,-37.41674
2021-04-26 15:25:11.237040,-41.88885
2021-04-26 15:25:11.252670,-43.64948
2021-04-26 15:25:11.268290,-42.17694
2021-04-26 15:25:11.283920,-37.53981
2021-04-26 15:25:11.299540,-30.35248
2021-04-26 15:25:11.315170,-21.5901
2021-04-26 15:25:11.330800,-12.27777
2021-04-26 15:25:11.346420,-3.285576
2021-04-26 15:25:11.362050,4.776428
2021-04-26 15:25:11.377670,11.53722
2021-04-26 15:25:11.393300,16.74498
2021-04-26 15:25:11.408920,20.2581
2021-04-26 15:25:11.424550,22.05428
2021-04-26 15:25:11.440180,22.32755
2021-04-26 15:25:11.455800,21.51218
2021-04-26 15:25:11.471430,20.2139
2021-04-26 15:25:11.487050,18.99478
2021-04-26 15:25:11.502680,18.21866
2021-04-26 15:25:11.518300,17.87322
2021-04-26 15:25:11.533930,17.61969
2021-04-26 15:25:11.549560,17.0013
2021-04-26 15:25:11.565180,15.6516
2021-04-26 15:25:11.580810,13.48527
2021-04-26 15:25:11.596430,10.67973
2021-04-26 15:25:11.612060,7.631739
2021-04-26 15:25:11.627680,4.708855
2021-04-26 15:25:11.643310,2.131519
2021-04-26 15:25:11.658940,-0.1237411
2021-04-26 15:25:11.674560,-2.273144
2021-04-26 15:25:11.690190,-4.657772
2021-04-26 15:25:11.705810,-7.670727
2021-04-26 15:25:11.721440,-11.60838
2021-04-26 15:25:11.737070,-16.59524
2021-04-26 15:25:11.752690,-22.4368
2021-04-26 15:25:11.768320,-28.53447
2021-04-26 15:25:11.783940,-33.93267
2021-04-26 15:25:11.799570,-37.48495
2021-04-26 15:25:11.815190,-38.17081
2021-04-26 15:25:11.830820,-35.45502
2021-04-26 15:25:11.846450,-29.50405
2021-04-26 15:25:11.862070,-21.10042
2021-04-26 15:25:11.877700,-11.42552
2021-04-26 15:25:11.893320,-1.679846
2021-04-26 15:25:11.908950,7.217519
2021-04-26 15:25:11.924570,14.70585
2021-04-26 15:25:11.940200,20.53111
2021-04-26 15:25:11.955830,24.58586
2021-04-26 15:25:11.971450,26.82176
2021-04-26 15:25:11.987080,27.2632
2021-04-26 15:25:12.002700,26.14376
2021-04-26 15:25:12.018330,23.93934
2021-04-26 15:25:12.033950,21.28484
2021-04-26 15:25:12.049580,18.84064
2021-04-26 15:25:12.065210,17.00842
2021-04-26 15:25:12.080830,15.84249
2021-04-26 15:25:12.096460,15.04385
2021-04-26 15:25:12.112080,14.18097
2021-04-26 15:25:12.127710,12.88767
2021-04-26 15:25:12.143330,11.06921
2021-04-26 15:25:12.158960,8.894042
2021-04-26 15:25:12.174590,6.70366
2021-04-26 15:25:12.190210,4.822287
2021-04-26 15:25:12.205840,3.379002
2021-04-26 15:25:12.221460,2.219882
2021-04-26 15:25:12.237090,0.916326
2021-04-26 15:25:12.252710,-1.111643
2021-04-26 15:25:12.268340,-4.432336
2021-04-26 15:25:12.283970,-9.363972
2021-04-26 15:25:12.299590,-15.83781
2021-04-26 15:25:12.315220,-23.26936
2021-04-26 15:25:12.330840,-30.60924
2021-04-26 15:25:12.346470,-36.54863
2021-04-26 15:25:12.362090,-39.83786
2021-04-26 15:25:12.377720,-39.64243
2021-04-26 15:25:12.393350,-35.81762
2021-04-26 15:25:12.408970,-28.94676
2021-04-26 15:25:12.424600,-20.20586
2021-04-26 15:25:12.440220,-10.93644
2021-04-26 15:25:12.455850,-2.282868
2021-04-26 15:25:12.471470,5.076419
2021-04-26 15:25:12.487100,10.90885
2021-04-26 15:25:12.502730,15.27497
2021-04-26 15:25:12.518350,18.27384
2021-04-26 15:25:12.533980,19.88327
2021-04-26 15:25:12.549600,20.08855
2021-04-26 15:25:12.565230,19.00743
2021-04-26 15:25:12.580850,17.08075
2021-04-26 15:25:12.596480,14.95382
2021-04-26 15:25:12.612110,13.2916
2021-04-26 15:25:12.627730,12.48225
2021-04-26 15:25:12.643360,12.4662
2021-04-26 15:25:12.658980,12.79846
2021-04-26 15:25:12.674610,12.91813
2021-04-26 15:25:12.690230,12.41616
2021-04-26 15:25:12.705860,11.18425
2021-04-26 15:25:12.721490,9.432997
2021-04-26 15:25:12.737110,7.510386
2021-04-26 15:25:12.752740,5.668766
2021-04-26 15:25:12.768360,3.982887
2021-04-26 15:25:12.783990,2.330593
2021-04-26 15:25:12.799610,0.430191
2021-04-26 15:25:12.815240,-2.075785
2021-04-26 15:25:12.830870,-5.540968
2021-04-26 15:25:12.846490,-10.25322
2021-04-26 15:25:12.862120,-16.25728
2021-04-26 15:25:12.877740,-23.1429
2021-04-26 15:25:12.893370,-29.97054
2021-04-26 15:25:12.908990,-35.41026
2021-04-26 15:25:12.924620,-38.1062
2021-04-26 15:25:12.940250,-37.17684
2021-04-26 15:25:12.955870,-32.57267
2021-04-26 15:25:12.971500,-25.07322
2021-04-26 15:25:12.987120,-15.9805
2021-04-26 15:25:13.002750,-6.611591
2021-04-26 15:25:13.018370,2.102936
2021-04-26 15:25:13.034000,9.707767
2021-04-26 15:25:13.049630,16.03935
2021-04-26 15:25:13.065250,20.99231
2021-04-26 15:25:13.080880,24.35854
2021-04-26 15:25:13.096500,25.91327
2021-04-26 15:25:13.112130,25.64415
2021-04-26 15:25:13.127750,23.92653
2021-04-26 15:25:13.143380,21.50177
2021-04-26 15:25:13.159010,19.24591
2021-04-26 15:25:13.174630,17.85913
2021-04-26 15:25:13.190260,17.5726
2021-04-26 15:25:13.205880,18.05239
2021-04-26 15:25:13.221510,18.56514
2021-04-26 15:25:13.237130,18.32708
2021-04-26 15:25:13.252760,16.82892
2021-04-26 15:25:13.268390,14.07674
2021-04-26 15:25:13.284010,10.59493
2021-04-26 15:25:13.299640,7.154129
2021-04-26 15:25:13.315260,4.371941
2021-04-26 15:25:13.330890,2.454369
2021-04-26 15:25:13.346510,1.050842
2021-04-26 15:25:13.362140,-0.5629501
2021-04-26 15:25:13.377770,-3.147053
2021-04-26 15:25:13.393390,-7.207367
2021-04-26 15:25:13.409020,-12.78953
2021-04-26 15:25:13.424640,-19.47678
2021-04-26 15:25:13.440270,-26.4611
2021-04-26 15:25:13.455890,-32.72916
2021-04-26 15:25:13.471520,-37.24551
2021-04-26 15:25:13.502770,-37.94953
2021-04-26 15:25:13.518400,-33.63335
2021-04-26 15:25:13.534020,-26.64335
2021-04-26 15:25:13.549650,-17.7814
2021-04-26 15:25:13.565270,-8.011749
2021-04-26 15:25:13.580900,1.74131
2021-04-26 15:25:13.596530,10.69038
2021-04-26 15:25:13.612150,18.24258
2021-04-26 15:25:13.627780,23.98418
2021-04-26 15:25:13.643400,27.70332
2021-04-26 15:25:13.659030,29.39435
2021-04-26 15:25:13.674650,29.32355
2021-04-26 15:25:13.690280,28.00439
2021-04-26 15:25:13.705910,26.07245
2021-04-26 15:25:13.721530,24.13997
2021-04-26 15:25:13.737160,22.60231
2021-04-26 15:25:13.752780,21.58151
2021-04-26 15:25:13.768410,20.92796
2021-04-26 15:25:13.784030,20.38117
2021-04-26 15:25:13.799660,19.66326
2021-04-26 15:25:13.815290,18.57743
2021-04-26 15:25:13.830910,17.05068
2021-04-26 15:25:13.846540,15.0863
2021-04-26 15:25:13.862160,12.77344
2021-04-26 15:25:13.877790,10.22273
2021-04-26 15:25:13.893410,7.510956
2021-04-26 15:25:13.909040,4.693359
2021-04-26 15:25:13.924670,1.720543
2021-04-26 15:25:13.940290,-1.525879
2021-04-26 15:25:13.955920,-5.219528
2021-04-26 15:25:13.971540,-9.579582
2021-04-26 15:25:13.987170,-14.82379
2021-04-26 15:25:14.002790,-21.02911
2021-04-26 15:25:14.018420,-28.02714
2021-04-26 15:25:14.034050,-35.22052
2021-04-26 15:25:14.049670,-41.56813
2021-04-26 15:25:14.065300,-45.76111
2021-04-26 15:25:14.080920,-46.61315
2021-04-26 15:25:14.096550,-43.45916
2021-04-26 15:25:14.112170,-36.44604
2021-04-26 15:25:14.127800,-26.58028
2021-04-26 15:25:14.143430,-15.32545
2021-04-26 15:25:14.159050,-4.163429
2021-04-26 15:25:14.174680,5.815384
2021-04-26 15:25:14.190300,14.0671
2021-04-26 15:25:14.205930,20.44546
2021-04-26 15:25:14.221550,25.00758
2021-04-26 15:25:14.237180,27.86106
2021-04-26 15:25:14.252810,29.14448
2021-04-26 15:25:14.268430,29.08722
2021-04-26 15:25:14.284060,28.07327
2021-04-26 15:25:14.299680,26.60544
2021-04-26 15:25:14.315310,25.17438
2021-04-26 15:25:14.330940,24.11756
2021-04-26 15:25:14.346560,23.52716
2021-04-26 15:25:14.362190,23.28368
2021-04-26 15:25:14.377810,23.10353
2021-04-26 15:25:14.393440,22.65275
2021-04-26 15:25:14.409060,21.6768
2021-04-26 15:25:14.424690,20.08141
2021-04-26 15:25:14.440320,17.95651
2021-04-26 15:25:14.455940,15.50852
2021-04-26 15:25:14.471570,12.9264
2021-04-26 15:25:14.487190,10.29506
2021-04-26 15:25:14.502820,7.56237
2021-04-26 15:25:14.518440,4.583672
2021-04-26 15:25:14.534070,1.246208
2021-04-26 15:25:14.549700,-2.495346
2021-04-26 15:25:14.565320,-6.586678
2021-04-26 15:25:14.580950,-11.00417
2021-04-26 15:25:14.596570,-15.81473
2021-04-26 15:25:14.612200,-21.06158
2021-04-26 15:25:14.627820,-26.63667
2021-04-26 15:25:14.643450,-32.06741
2021-04-26 15:25:14.659080,-36.46194
2021-04-26 15:25:14.674700,-38.71127
2021-04-26 15:25:14.690330,-37.86774
2021-04-26 15:25:14.705950,-33.51563
2021-04-26 15:25:14.721580,-25.95306
2021-04-26 15:25:14.737200,-16.12751
2021-04-26 15:25:14.752830,-5.321266
2021-04-26 15:25:14.768460,5.197243
2021-04-26 15:25:14.784080,14.39946
2021-04-26 15:25:14.799710,21.68639
2021-04-26 15:25:14.815330,26.91706
2021-04-26 15:25:14.830960,30.32118
2021-04-26 15:25:14.846580,32.33517
2021-04-26 15:25:14.862210,33.4398
2021-04-26 15:25:14.877840,34.00144
2021-04-26 15:25:14.893460,34.21738
2021-04-26 15:25:14.909090,34.19848
2021-04-26 15:25:14.924710,34.06185
2021-04-26 15:25:14.940340,33.9864
2021-04-26 15:25:14.955960,34.03823
2021-04-26 15:25:14.971590,33.94006
2021-04-26 15:25:14.987220,33.02573
2021-04-26 15:25:15.002840,30.43131
2021-04-26 15:25:15.018470,25.57533
2021-04-26 15:25:15.034090,18.64892
2021-04-26 15:25:15.049720,10.70493
2021-04-26 15:25:15.065340,3.238136
2021-04-26 15:25:15.080970,-2.562981
2021-04-26 15:25:15.096600,-6.475304
2021-04-26 15:25:15.112220,-9.33107
2021-04-26 15:25:15.127850,-12.47961
2021-04-26 15:25:15.143470,-16.95263
2021-04-26 15:25:15.159100,-22.9045
2021-04-26 15:25:15.174720,-29.60561
2021-04-26 15:25:15.190350,-36.03053
2021-04-26 15:25:15.205980,-41.60744
2021-04-26 15:25:15.221600,-46.47859
2021-04-26 15:25:15.237230,-51.23706
2021-04-26 15:25:15.252850,-56.22515
2021-04-26 15:25:15.268480,-60.90765
2021-04-26 15:25:15.284100,-63.85251
2021-04-26 15:25:15.299730,-63.3332
2021-04-26 15:25:15.315360,-58.19357
2021-04-26 15:25:15.330980,-48.49945
2021-04-26 15:25:15.346610,-35.60834
2021-04-26 15:25:15.362230,-21.57542
2021-04-26 15:25:15.377860,-8.301247
2021-04-26 15:25:15.393480,3.060097
2021-04-26 15:25:15.409110,12.24951
2021-04-26 15:25:15.424740,19.53928
2021-04-26 15:25:15.440360,25.26598
2021-04-26 15:25:15.455990,29.52698
2021-04-26 15:25:15.471610,32.21117
2021-04-26 15:25:15.487240,33.24042
2021-04-26 15:25:15.502860,32.841
2021-04-26 15:25:15.518490,31.57063
2021-04-26 15:25:15.534120,30.15199
2021-04-26 15:25:15.549740,29.18237
2021-04-26 15:25:15.565370,28.92159
2021-04-26 15:25:15.580990,29.23544
2021-04-26 15:25:15.596620,29.71027
2021-04-26 15:25:15.612240,29.85239
2021-04-26 15:25:15.627870,29.20706
2021-04-26 15:25:15.643500,27.52736
2021-04-26 15:25:15.659120,24.80304
2021-04-26 15:25:15.674750,21.23067
2021-04-26 15:25:15.690370,17.14368
2021-04-26 15:25:15.706000,12.91276
2021-04-26 15:25:15.721620,8.836525
2021-04-26 15:25:15.737250,5.093422
2021-04-26 15:25:15.752880,1.673447
2021-04-26 15:25:15.768500,-1.577438
2021-04-26 15:25:15.784130,-4.965302
2021-04-26 15:25:15.799750,-8.938515
2021-04-26 15:25:15.815380,-13.96085
2021-04-26 15:25:15.831000,-20.29272
2021-04-26 15:25:15.846630,-27.72575
2021-04-26 15:25:15.862260,-35.43033
2021-04-26 15:25:15.877880,-41.95882
2021-04-26 15:25:15.893510,-45.6609
2021-04-26 15:25:15.909130,-45.24622
2021-04-26 15:25:15.924760,-40.30595
2021-04-26 15:25:15.940380,-31.56131
2021-04-26 15:25:15.956010,-20.66581
2021-04-26 15:25:15.971640,-9.622162
2021-04-26 15:25:15.987260,-0.1483078
2021-04-26 15:25:16.002890,6.862595
2021-04-26 15:25:16.018510,11.39535
2021-04-26 15:25:16.034140,14.06397
2021-04-26 15:25:16.049760,15.64332
2021-04-26 15:25:16.065390,16.69494
2021-04-26 15:25:16.081020,17.30136
2021-04-26 15:25:16.096640,17.24149
2021-04-26 15:25:16.112270,16.22371
2021-04-26 15:25:16.127890,14.13536
2021-04-26 15:25:16.143520,11.13613
2021-04-26 15:25:16.159140,7.581268
2021-04-26 15:25:16.174770,3.837753
2021-04-26 15:25:16.190400,0.1821136
2021-04-26 15:25:16.206020,-3.055473
2021-04-26 15:25:16.221650,-5.447495
2021-04-26 15:25:16.237270,-6.420174
2021-04-26 15:25:16.252900,-5.495705
2021-04-26 15:25:16.268520,-2.622307
2021-04-26 15:25:16.284150,1.486015
2021-04-26 15:25:16.299780,5.446693
2021-04-26 15:25:16.315400,7.644455
2021-04-26 15:25:16.331030,6.961784
2021-04-26 15:25:16.346650,3.351784
2021-04-26 15:25:16.362280,-2.171021
2021-04-26 15:25:16.377900,-8.039833
2021-04-26 15:25:16.393530,-13.00208
2021-04-26 15:25:16.409160,-16.81238
2021-04-26 15:25:16.424780,-20.27877
2021-04-26 15:25:16.440410,-24.67277
2021-04-26 15:25:16.456030,-30.7542
2021-04-26 15:25:16.471660,-38.05758
2021-04-26 15:25:16.487280,-44.83071
2021-04-26 15:25:16.502910,-48.76692
2021-04-26 15:25:16.518540,-48.09095
2021-04-26 15:25:16.534160,-42.49152
2021-04-26 15:25:16.549790,-33.27685
2021-04-26 15:25:16.565410,-22.72378
2021-04-26 15:25:16.581040,-12.98705
2021-04-26 15:25:16.596670,-5.154396
2021-04-26 15:25:16.612290,0.9836121
2021-04-26 15:25:16.627920,6.388184
2021-04-26 15:25:16.643540,11.86789
2021-04-26 15:25:16.659170,17.3889
2021-04-26 15:25:16.674790,22.01855
2021-04-26 15:25:16.690420,24.54115
2021-04-26 15:25:16.706050,24.32011
2021-04-26 15:25:16.721670,21.84677
2021-04-26 15:25:16.737300,18.60321
2021-04-26 15:25:16.752920,16.358
2021-04-26 15:25:16.768550,16.31326
2021-04-26 15:25:16.784170,18.55138
2021-04-26 15:25:16.799800,22.09254
2021-04-26 15:25:16.815430,25.40816
2021-04-26 15:25:16.831050,27.16591
2021-04-26 15:25:16.846680,26.72455
2021-04-26 15:25:16.862300,24.27167
2021-04-26 15:25:16.877930,20.57341
2021-04-26 15:25:16.893550,16.59668
2021-04-26 15:25:16.909180,13.08691
2021-04-26 15:25:16.924810,10.35408
2021-04-26 15:25:16.940430,8.2108
2021-04-26 15:25:16.956060,6.120361
2021-04-26 15:25:16.971680,3.391739
2021-04-26 15:25:16.987310,-0.541748
2021-04-26 15:25:17.002930,-5.918625
2021-04-26 15:25:17.018560,-12.52625
2021-04-26 15:25:17.034190,-19.76085
2021-04-26 15:25:17.049810,-26.68924
2021-04-26 15:25:17.065440,-32.29379
2021-04-26 15:25:17.081060,-35.62077
2021-04-26 15:25:17.096690,-35.98656
2021-04-26 15:25:17.112310,-33.11417
2021-04-26 15:25:17.127940,-27.20821
2021-04-26 15:25:17.143570,-18.95399
2021-04-26 15:25:17.159190,-9.36441
2021-04-26 15:25:17.174820,0.4057159
2021-04-26 15:25:17.190440,9.341812
2021-04-26 15:25:17.206070,16.74547
2021-04-26 15:25:17.221690,22.30345
2021-04-26 15:25:17.237320,26.06755
2021-04-26 15:25:17.252950,28.28424
2021-04-26 15:25:17.268570,29.26857
2021-04-26 15:25:17.284200,29.3264
2021-04-26 15:25:17.299820,28.71413
2021-04-26 15:25:17.315450,27.67435
2021-04-26 15:25:17.331070,26.48038
2021-04-26 15:25:17.346700,25.40413
2021-04-26 15:25:17.362330,24.65152
2021-04-26 15:25:17.377950,24.24422
2021-04-26 15:25:17.393580,24.0096
2021-04-26 15:25:17.409200,23.61276
2021-04-26 15:25:17.424830,22.72903
2021-04-26 15:25:17.440450,21.20282
2021-04-26 15:25:17.456080,19.13846
2021-04-26 15:25:17.471710,16.82166
2021-04-26 15:25:17.487330,14.54808
2021-04-26 15:25:17.502960,12.43933
2021-04-26 15:25:17.518580,10.36801
2021-04-26 15:25:17.534210,8.022644
2021-04-26 15:25:17.549830,5.127701
2021-04-26 15:25:17.565460,1.562546
2021-04-26 15:25:17.581090,-2.576447
2021-04-26 15:25:17.596710,-7.135361
2021-04-26 15:25:17.612340,-12.04269
2021-04-26 15:25:17.627960,-17.31357
2021-04-26 15:25:17.643590,-22.91228
2021-04-26 15:25:17.659210,-28.48007
2021-04-26 15:25:17.674840,-33.2095
2021-04-26 15:25:17.690470,-35.92342
2021-04-26 15:25:17.706090,-35.47621
2021-04-26 15:25:17.721720,-31.24843
2021-04-26 15:25:17.737340,-23.52118
2021-04-26 15:25:17.752970,-13.57225
2021-04-26 15:25:17.768590,-3.288635
2021-04-26 15:25:17.784220,5.501999
2021-04-26 15:25:17.799850,11.68625
2021-04-26 15:25:17.815470,15.17372
2021-04-26 15:25:17.831100,16.72328
2021-04-26 15:25:17.846720,17.38608
2021-04-26 15:25:17.862350,17.9001
2021-04-26 15:25:17.877970,18.37392
2021-04-26 15:25:17.893600,18.48279
2021-04-26 15:25:17.909230,17.85643
2021-04-26 15:25:17.924850,16.52225
2021-04-26 15:25:17.940480,14.93388
2021-04-26 15:25:17.956100,13.72932
2021-04-26 15:25:17.971730,13.26703
2021-04-26 15:25:17.987350,13.43352
2021-04-26 15:25:18.002980,13.73257
2021-04-26 15:25:18.018610,13.64211
2021-04-26 15:25:18.034230,12.9505
2021-04-26 15:25:18.049860,11.84967
2021-04-26 15:25:18.065480,10.67755
2021-04-26 15:25:18.081110,9.622131
2021-04-26 15:25:18.096730,8.5522
2021-04-26 15:25:18.112360,7.104736
2021-04-26 15:25:18.127990,4.943222
2021-04-26 15:25:18.143610,2.002457
2021-04-26 15:25:18.159240,-1.524704
2021-04-26 15:25:18.174860,-5.307648
2021-04-26 15:25:18.190490,-9.111267
2021-04-26 15:25:18.206110,-12.92857
2021-04-26 15:25:18.221740,-16.98151
2021-04-26 15:25:18.237370,-21.57554
2021-04-26 15:25:18.252990,-26.89733
2021-04-26 15:25:18.268620,-32.81016
2021-04-26 15:25:18.284240,-38.72225
2021-04-26 15:25:18.299870,-43.62363
2021-04-26 15:25:18.315490,-46.30215
2021-04-26 15:25:18.331120,-45.79367
2021-04-26 15:25:18.346750,-41.71797
2021-04-26 15:25:18.362370,-34.47585
2021-04-26 15:25:18.378000,-25.13364
2021-04-26 15:25:18.393620,-15.05647
2021-04-26 15:25:18.409250,-5.467834
2021-04-26 15:25:18.424870,2.87532
2021-04-26 15:25:18.440500,9.702469
2021-04-26 15:25:18.456130,15.09326
2021-04-26 15:25:18.471750,19.20291
2021-04-26 15:25:18.487380,22.10776
2021-04-26 15:25:18.503000,23.82318
2021-04-26 15:25:18.518630,24.43092
2021-04-26 15:25:18.534250,24.15062
2021-04-26 15:25:18.549880,23.37701
2021-04-26 15:25:18.565510,22.55609
2021-04-26 15:25:18.581130,21.98473
2021-04-26 15:25:18.596760,21.74876
2021-04-26 15:25:18.612380,21.70547
2021-04-26 15:25:18.628010,21.63829
2021-04-26 15:25:18.643630,21.45094
2021-04-26 15:25:18.659260,21.24945
2021-04-26 15:25:18.674890,21.22145
2021-04-26 15:25:18.690510,21.47478
2021-04-26 15:25:18.706140,21.83113
2021-04-26 15:25:18.721760,21.83162
2021-04-26 15:25:18.737390,20.95973
2021-04-26 15:25:18.753020,18.90662
2021-04-26 15:25:18.768640,15.77948
2021-04-26 15:25:18.784270,11.99767
2021-04-26 15:25:18.799890,8.042213
2021-04-26 15:25:18.815520,4.117218
2021-04-26 15:25:18.831140,0.00252533
2021-04-26 15:25:18.846770,-4.791679
2021-04-26 15:25:18.862400,-10.72395
2021-04-26 15:25:18.878020,-17.78732
2021-04-26 15:25:18.893650,-25.37086
2021-04-26 15:25:18.909270,-32.32896
2021-04-26 15:25:18.924900,-37.33939
2021-04-26 15:25:18.940520,-39.32381
2021-04-26 15:25:18.956150,-37.79393
2021-04-26 15:25:18.971780,-32.9577
2021-04-26 15:25:18.987400,-25.57762
2021-04-26 15:25:19.003030,-16.72605
2021-04-26 15:25:19.018650,-7.452194
2021-04-26 15:25:19.034280,1.432587
2021-04-26 15:25:19.049900,9.385292
2021-04-26 15:25:19.065530,16.08273
2021-04-26 15:25:19.081160,21.32943
2021-04-26 15:25:19.096780,25.00134
2021-04-26 15:25:19.112410,27.08279
2021-04-26 15:25:19.128030,27.75854
2021-04-26 15:25:19.143660,27.38734
2021-04-26 15:25:19.159280,26.4773
2021-04-26 15:25:19.174910,25.4894
2021-04-26 15:25:19.190540,24.71262
2021-04-26 15:25:19.206160,24.14793
2021-04-26 15:25:19.221790,23.60588
2021-04-26 15:25:19.237410,22.81138
2021-04-26 15:25:19.253040,21.55254
2021-04-26 15:25:19.268660,19.79632
2021-04-26 15:25:19.284290,17.62898
2021-04-26 15:25:19.299920,15.22981
2021-04-26 15:25:19.315540,12.74486
2021-04-26 15:25:19.331170,10.23575
2021-04-26 15:25:19.346790,7.670792
2021-04-26 15:25:19.362420,4.990883
2021-04-26 15:25:19.378040,2.13575
2021-04-26 15:25:19.393670,-0.9090958
2021-04-26 15:25:19.409300,-4.116066
2021-04-26 15:25:19.424920,-7.457222
2021-04-26 15:25:19.440550,-10.99049
2021-04-26 15:25:19.456170,-14.86829
2021-04-26 15:25:19.471800,-19.32647
2021-04-26 15:25:19.487420,-24.49283
2021-04-26 15:25:19.503050,-30.2196
2021-04-26 15:25:19.518680,-35.94671
2021-04-26 15:25:19.534300,-40.74438
2021-04-26 15:25:19.549930,-43.58557
2021-04-26 15:25:19.565550,-43.72198
2021-04-26 15:25:19.581180,-40.9827
2021-04-26 15:25:19.596800,-35.80239
2021-04-26 15:25:19.612430,-29.05473
2021-04-26 15:25:19.628060,-21.63592
2021-04-26 15:25:19.643680,-14.22791
2021-04-26 15:25:19.659310,-7.21743
2021-04-26 15:25:19.674930,-0.8316307
2021-04-26 15:25:19.690560,4.695442
2021-04-26 15:25:19.706180,9.016674
2021-04-26 15:25:19.721810,11.80651
2021-04-26 15:25:19.737440,12.95219
2021-04-26 15:25:19.753060,12.65678
2021-04-26 15:25:19.768690,11.39768
2021-04-26 15:25:19.784310,9.761105
2021-04-26 15:25:19.799940,8.251652
2021-04-26 15:25:19.815560,7.142246
2021-04-26 15:25:19.831190,6.498196
2021-04-26 15:25:19.846820,6.222248
2021-04-26 15:25:19.862440,6.114483
2021-04-26 15:25:19.878070,5.942463
2021-04-26 15:25:19.893690,5.456821
2021-04-26 15:25:19.909320,4.483265
2021-04-26 15:25:19.924940,2.958767
2021-04-26 15:25:19.940570,0.9483719
2021-04-26 15:25:19.956200,-1.349331
2021-04-26 15:25:19.971820,-3.757504
2021-04-26 15:25:19.987450,-6.17963
2021-04-26 15:25:20.003070,-8.653751
2021-04-26 15:25:20.018700,-11.36673
2021-04-26 15:25:20.034320,-14.542
2021-04-26 15:25:20.049950,-18.35127
2021-04-26 15:25:20.065580,-22.83107
2021-04-26 15:25:20.096830,-33.10644
2021-04-26 15:25:20.112450,-38.00841
2021-04-26 15:25:20.128080,-41.84047
2021-04-26 15:25:20.143700,-43.83167
2021-04-26 15:25:20.159330,-43.35752
2021-04-26 15:25:20.174960,-40.10925
2021-04-26 15:25:20.190580,-34.22607
2021-04-26 15:25:20.206210,-26.29613
2021-04-26 15:25:20.221830,-17.21785
2021-04-26 15:25:20.237460,-7.969208
2021-04-26 15:25:20.253080,0.5759811
2021-04-26 15:25:20.268710,7.818035
2021-04-26 15:25:20.284340,13.46114
2021-04-26 15:25:20.299960,17.47335
2021-04-26 15:25:20.315590,19.96988
2021-04-26 15:25:20.331210,21.14482
2021-04-26 15:25:20.346840,21.28826
2021-04-26 15:25:20.362460,20.73442
2021-04-26 15:25:20.378090,19.90789
2021-04-26 15:25:20.393720,19.21088
2021-04-26 15:25:20.409340,18.90242
2021-04-26 15:25:20.424970,18.99437
2021-04-26 15:25:20.440590,19.22414
2021-04-26 15:25:20.456220,19.17165
2021-04-26 15:25:20.471840,18.46851
2021-04-26 15:25:20.487470,16.94104
2021-04-26 15:25:20.503100,14.69289
2021-04-26 15:25:20.518720,12.02129
2021-04-26 15:25:20.534350,9.243195
2021-04-26 15:25:20.549970,6.594505
2021-04-26 15:25:20.565600,4.151501
2021-04-26 15:25:20.581220,1.808044
2021-04-26 15:25:20.596850,-0.6760254
2021-04-26 15:25:20.612480,-3.63916
2021-04-26 15:25:20.628100,-7.451302
2021-04-26 15:25:20.643730,-12.34973
2021-04-26 15:25:20.659350,-18.28525
2021-04-26 15:25:20.674980,-24.76373
2021-04-26 15:25:20.690600,-30.84036
2021-04-26 15:25:20.706230,-35.33054
2021-04-26 15:25:20.721860,-37.18043
2021-04-26 15:25:20.737480,-35.79633
2021-04-26 15:25:20.753110,-31.29953
2021-04-26 15:25:20.768730,-24.45355
2021-04-26 15:25:20.784360,-16.35964
2021-04-26 15:25:20.799980,-8.07972
2021-04-26 15:25:20.815610,-0.3181686
2021-04-26 15:25:20.831240,6.629574
2021-04-26 15:25:20.846860,12.75326
2021-04-26 15:25:20.862490,18.04851
2021-04-26 15:25:20.878110,22.31255
2021-04-26 15:25:20.893740,25.14359
2021-04-26 15:25:20.909360,26.17105
2021-04-26 15:25:20.924990,25.336
2021-04-26 15:25:20.940620,23.1049
2021-04-26 15:25:20.956240,20.34801
2021-04-26 15:25:20.971870,18.04898
2021-04-26 15:25:20.987490,16.86198
2021-04-26 15:25:21.003120,16.82959
2021-04-26 15:25:21.018740,17.41429
2021-04-26 15:25:21.034370,17.78867
2021-04-26 15:25:21.050000,17.30369
2021-04-26 15:25:21.065620,15.76104
2021-04-26 15:25:21.081250,13.4606
2021-04-26 15:25:21.096870,10.95143
2021-04-26 15:25:21.112500,8.693947
2021-04-26 15:25:21.128120,6.814323
2021-04-26 15:25:21.143750,5.060509
2021-04-26 15:25:21.159380,2.986481
2021-04-26 15:25:21.175000,0.1886292
2021-04-26 15:25:21.190630,-3.551167
2021-04-26 15:25:21.206250,-8.21571
2021-04-26 15:25:21.221880,-13.6669
2021-04-26 15:25:21.237500,-19.64879
2021-04-26 15:25:21.253130,-25.79342
2021-04-26 15:25:21.268760,-31.53341
2021-04-26 15:25:21.284380,-36.10491
2021-04-26 15:25:21.300010,-38.64384
2021-04-26 15:25:21.315630,-38.42548
2021-04-26 15:25:21.331260,-35.13325
2021-04-26 15:25:21.346880,-29.02816
2021-04-26 15:25:21.362510,-20.86959
2021-04-26 15:25:21.378140,-11.70742
2021-04-26 15:25:21.393760,-2.559425
2021-04-26 15:25:21.409390,5.834206
2021-04-26 15:25:21.425010,13.03653
2021-04-26 15:25:21.440640,18.89156
2021-04-26 15:25:21.456270,23.32664
2021-04-26 15:25:21.471890,26.29304
2021-04-26 15:25:21.487520,27.77239
2021-04-26 15:25:21.503140,27.87177
2021-04-26 15:25:21.518770,26.89103
2021-04-26 15:25:21.534390,25.30754
2021-04-26 15:25:21.550020,23.64838
2021-04-26 15:25:21.565650,22.32134
2021-04-26 15:25:21.581270,21.51339
2021-04-26 15:25:21.596900,21.1558
2021-04-26 15:25:21.612520,21.03075
2021-04-26 15:25:21.628150,20.85234
2021-04-26 15:25:21.643770,20.34929
2021-04-26 15:25:21.659400,19.281
2021-04-26 15:25:21.675030,17.48228
2021-04-26 15:25:21.690650,14.87821
2021-04-26 15:25:21.706280,11.55215
2021-04-26 15:25:21.721900,7.732903
2021-04-26 15:25:21.737530,3.725052
2021-04-26 15:25:21.753150,-0.2010803
2021-04-26 15:25:21.768780,-3.929665
2021-04-26 15:25:21.784410,-7.578472
2021-04-26 15:25:21.800030,-11.45356
2021-04-26 15:25:21.815660,-15.88943
2021-04-26 15:25:21.831280,-21.02718
2021-04-26 15:25:21.846910,-26.66005
2021-04-26 15:25:21.862530,-32.14267
2021-04-26 15:25:21.878160,-36.4789
2021-04-26 15:25:21.893790,-38.61227
2021-04-26 15:25:21.909410,-37.73801
2021-04-26 15:25:21.925040,-33.64867
2021-04-26 15:25:21.940660,-26.80009
2021-04-26 15:25:21.956290,-18.17119
2021-04-26 15:25:21.971910,-8.944916
2021-04-26 15:25:21.987540,-0.1122284
2021-04-26 15:25:22.003170,7.684048
2021-04-26 15:25:22.018790,14.16761
2021-04-26 15:25:22.034420,19.21263
2021-04-26 15:25:22.050040,22.7022
2021-04-26 15:25:22.065670,24.45081
2021-04-26 15:25:22.081290,24.35847
2021-04-26 15:25:22.096920,22.55236
2021-04-26 15:25:22.112550,19.49825
2021-04-26 15:25:22.128170,15.91883
2021-04-26 15:25:22.143800,12.6224
2021-04-26 15:25:22.159420,10.25757
2021-04-26 15:25:22.175050,9.126854
2021-04-26 15:25:22.190670,9.10268
2021-04-26 15:25:22.206300,9.698231
2021-04-26 15:25:22.221930,10.25257
2021-04-26 15:25:22.237550,10.18311
2021-04-26 15:25:22.253180,9.220699
2021-04-26 15:25:22.268800,7.502968
2021-04-26 15:25:22.284430,5.460243
2021-04-26 15:25:22.300050,3.559383
2021-04-26 15:25:22.315680,2.030495
2021-04-26 15:25:22.331310,0.7466621
2021-04-26 15:25:22.346930,-0.7252884
2021-04-26 15:25:22.362560,-2.888687
2021-04-26 15:25:22.378180,-6.054077
2021-04-26 15:25:22.393810,-10.27658
2021-04-26 15:25:22.409430,-15.30639
2021-04-26 15:25:22.425060,-20.75715
2021-04-26 15:25:22.440690,-26.16446
2021-04-26 15:25:22.456310,-30.97103
2021-04-26 15:25:22.471940,-34.5104
2021-04-26 15:25:22.487560,-36.05431
2021-04-26 15:25:22.503190,-35.01666
2021-04-26 15:25:22.518810,-31.14985
2021-04-26 15:25:22.534440,-24.76252
2021-04-26 15:25:22.550070,-16.63279
2021-04-26 15:25:22.565690,-7.810925
2021-04-26 15:25:22.581320,0.7104301
2021-04-26 15:25:22.596940,8.251976
2021-04-26 15:25:22.612570,14.48095
2021-04-26 15:25:22.628190,19.28185
2021-04-26 15:25:22.643820,22.61642
2021-04-26 15:25:22.659450,24.41855
2021-04-26 15:25:22.675070,24.63582
2021-04-26 15:25:22.690700,23.40976
2021-04-26 15:25:22.706320,21.16927
2021-04-26 15:25:22.721950,18.55484
2021-04-26 15:25:22.737570,16.26191
2021-04-26 15:25:22.753200,14.78541
2021-04-26 15:25:22.768830,14.27107
2021-04-26 15:25:22.784450,14.50935
2021-04-26 15:25:22.800080,15.03425
2021-04-26 15:25:22.815700,15.31316
2021-04-26 15:25:22.831330,14.96909
2021-04-26 15:25:22.846950,13.83611
2021-04-26 15:25:22.862580,11.99512
2021-04-26 15:25:22.878210,9.731689
2021-04-26 15:25:22.893830,7.346161
2021-04-26 15:25:22.909460,5.018341
2021-04-26 15:25:22.925080,2.716179
2021-04-26 15:25:22.940710,0.1794548
2021-04-26 15:25:22.956330,-2.983078
2021-04-26 15:25:22.971960,-7.119957
2021-04-26 15:25:22.987590,-12.32896
2021-04-26 15:25:23.003210,-18.36012
2021-04-26 15:25:23.018840,-24.56191
2021-04-26 15:25:23.034460,-30.01111
2021-04-26 15:25:23.050090,-33.70348
2021-04-26 15:25:23.065710,-34.82917
2021-04-26 15:25:23.081340,-32.99808
2021-04-26 15:25:23.096970,-28.34896
2021-04-26 15:25:23.112590,-21.48573
2021-04-26 15:25:23.128220,-13.32463
2021-04-26 15:25:23.143840,-4.820019
2021-04-26 15:25:23.159470,3.292568
2021-04-26 15:25:23.175090,10.52957
2021-04-26 15:25:23.190720,16.65804
2021-04-26 15:25:23.206350,21.51927
2021-04-26 15:25:23.221970,24.91187
2021-04-26 15:25:23.237600,26.60054
2021-04-26 15:25:23.253220,26.44676
2021-04-26 15:25:23.268850,24.61948
2021-04-26 15:25:23.284470,21.69347
2021-04-26 15:25:23.300100,18.55443
2021-04-26 15:25:23.315730,16.06793
2021-04-26 15:25:23.331350,14.74433
2021-04-26 15:25:23.346980,14.52533
2021-04-26 15:25:23.362600,14.82194
2021-04-26 15:25:23.378230,14.84409
2021-04-26 15:25:23.393850,13.98816
2021-04-26 15:25:23.409480,12.14896
2021-04-26 15:25:23.425110,9.690296
2021-04-26 15:25:23.440730,7.219273
2021-04-26 15:25:23.456360,5.235802
2021-04-26 15:25:23.471980,3.86021
2021-04-26 15:25:23.487610,2.81295
2021-04-26 15:25:23.503230,1.54566
2021-04-26 15:25:23.518860,-0.4808578
2021-04-26 15:25:23.534490,-3.664293
2021-04-26 15:25:23.550110,-8.128424
2021-04-26 15:25:23.565740,-13.778
2021-04-26 15:25:23.581360,-20.30977
2021-04-26 15:25:23.596990,-27.2337
2021-04-26 15:25:23.612620,-33.83414
2021-04-26 15:25:23.628240,-39.21747
2021-04-26 15:25:23.643870,-42.4573
2021-04-26 15:25:23.659490,-42.77113
2021-04-26 15:25:23.675120,-39.81272
2021-04-26 15:25:23.690740,-33.80037
2021-04-26 15:25:23.706370,-25.53456
2021-04-26 15:25:23.722000,-16.11028
2021-04-26 15:25:23.737620,-6.658205
