Datetime,value
BVP
2021-04-26 15:15:24.303610,-1.261002
2021-04-26 15:15:24.319240,-3.734329
2021-04-26 15:15:24.334860,-6.681686
2021-04-26 15:15:24.350490,-10.41835
2021-04-26 15:15:24.366110,-15.16112
2021-04-26 15:15:24.381740,-20.81886
2021-04-26 15:15:24.397360,-26.80406
2021-04-26 15:15:24.412990,-32.11519
2021-04-26 15:15:24.428620,-35.56494
2021-04-26 15:15:24.444240,-36.22928
2021-04-26 15:15:24.459870,-33.7542
2021-04-26 15:15:24.475490,-28.47546
2021-04-26 15:15:24.491120,-21.27507
2021-04-26 15:15:24.506740,-13.24509
2021-04-26 15:15:24.522370,-5.34523
2021-04-26 15:15:24.538000,1.753601
2021-04-26 15:15:24.553620,7.72168
2021-04-26 15:15:24.569250,12.43646
2021-04-26 15:15:24.584870,15.90053
2021-04-26 15:15:24.600500,18.15199
2021-04-26 15:15:24.616120,19.27094
2021-04-26 15:15:24.631750,19.36757
2021-04-26 15:15:24.647380,18.64665
2021-04-26 15:15:24.663000,17.3614
2021-04-26 15:15:24.678630,15.83394
2021-04-26 15:15:24.694250,14.40611
2021-04-26 15:15:24.709880,13.39368
2021-04-26 15:15:24.725500,12.99895
2021-04-26 15:15:24.741130,13.22385
2021-04-26 15:15:24.756760,13.86118
2021-04-26 15:15:24.772380,14.56264
2021-04-26 15:15:24.788010,14.95041
2021-04-26 15:15:24.803630,14.72821
2021-04-26 15:15:24.819260,13.71346
2021-04-26 15:15:24.834880,11.82568
2021-04-26 15:15:24.850510,9.072998
2021-04-26 15:15:24.866140,5.563171
2021-04-26 15:15:24.881760,1.537506
2021-04-26 15:15:24.897390,-2.68663
2021-04-26 15:15:24.913010,-6.723297
2021-04-26 15:15:24.928640,-10.2775
2021-04-26 15:15:24.944260,-13.29156
2021-04-26 15:15:24.959890,-15.94966
2021-04-26 15:15:24.975520,-18.64471
2021-04-26 15:15:24.991140,-21.7962
2021-04-26 15:15:25.006770,-25.71858
2021-04-26 15:15:25.022390,-30.52341
2021-04-26 15:15:25.038020,-36.07195
2021-04-26 15:15:25.053640,-41.89023
2021-04-26 15:15:25.069270,-47.2032
2021-04-26 15:15:25.084900,-50.98871
2021-04-26 15:15:25.100520,-52.1907
2021-04-26 15:15:25.116150,-50.06418
2021-04-26 15:15:25.131770,-44.46776
2021-04-26 15:15:25.147400,-36.04497
2021-04-26 15:15:25.163020,-26.04378
2021-04-26 15:15:25.178650,-15.93806
2021-04-26 15:15:25.194280,-6.9384
2021-04-26 15:15:25.209900,0.2836609
2021-04-26 15:15:25.225530,5.67543
2021-04-26 15:15:25.241150,9.537392
2021-04-26 15:15:25.256780,12.2466
2021-04-26 15:15:25.272400,14.10606
2021-04-26 15:15:25.288030,15.29936
2021-04-26 15:15:25.303660,16.02283
2021-04-26 15:15:25.319280,16.52633
2021-04-26 15:15:25.334910,17.11458
2021-04-26 15:15:25.350530,18.02013
2021-04-26 15:15:25.366160,19.27036
2021-04-26 15:15:25.381780,20.69036
2021-04-26 15:15:25.397410,21.95359
2021-04-26 15:15:25.413040,22.77851
2021-04-26 15:15:25.428660,23.0476
2021-04-26 15:15:25.444290,22.85916
2021-04-26 15:15:25.459910,22.4842
2021-04-26 15:15:25.491160,22.18302
2021-04-26 15:15:25.506790,22.32031
2021-04-26 15:15:25.522420,22.29474
2021-04-26 15:15:25.538040,21.62894
2021-04-26 15:15:25.553670,19.93438
2021-04-26 15:15:25.569290,17.08009
2021-04-26 15:15:25.584920,13.29785
2021-04-26 15:15:25.600540,9.100975
2021-04-26 15:15:25.616170,5.074921
2021-04-26 15:15:25.631800,1.618111
2021-04-26 15:15:25.647420,-1.193344
2021-04-26 15:15:25.663050,-3.673103
2021-04-26 15:15:25.678670,-6.379112
2021-04-26 15:15:25.694300,-9.880135
2021-04-26 15:15:25.709920,-14.51867
2021-04-26 15:15:25.725550,-20.14223
2021-04-26 15:15:25.741180,-26.06875
2021-04-26 15:15:25.756800,-31.20985
2021-04-26 15:15:25.772430,-34.34598
2021-04-26 15:15:25.788050,-34.52152
2021-04-26 15:15:25.803680,-31.37712
2021-04-26 15:15:25.819300,-25.30727
2021-04-26 15:15:25.834930,-17.30824
2021-04-26 15:15:25.850560,-8.5961
2021-04-26 15:15:25.866180,-0.2049866
2021-04-26 15:15:25.881810,7.243889
2021-04-26 15:15:25.897430,13.55142
2021-04-26 15:15:25.913060,18.70152
2021-04-26 15:15:25.928680,22.6892
2021-04-26 15:15:25.944310,25.42949
2021-04-26 15:15:25.959940,26.89559
2021-04-26 15:15:25.975560,27.2726
2021-04-26 15:15:25.991190,26.95562
2021-04-26 15:15:26.006810,26.44192
2021-04-26 15:15:26.022440,26.12079
2021-04-26 15:15:26.038060,26.11314
2021-04-26 15:15:26.053690,26.28642
2021-04-26 15:15:26.069320,26.46351
2021-04-26 15:15:26.084940,26.54535
2021-04-26 15:15:26.100570,26.6182
2021-04-26 15:15:26.116190,26.86935
2021-04-26 15:15:26.131820,27.39095
2021-04-26 15:15:26.147440,28.05841
2021-04-26 15:15:26.163070,28.52137
2021-04-26 15:15:26.178700,28.34698
2021-04-26 15:15:26.194320,27.1599
2021-04-26 15:15:26.209950,24.79976
2021-04-26 15:15:26.225570,21.35681
2021-04-26 15:15:26.241200,17.0996
2021-04-26 15:15:26.256820,12.38602
2021-04-26 15:15:26.272450,7.58297
2021-04-26 15:15:26.288080,2.977631
2021-04-26 15:15:26.303700,-1.238487
2021-04-26 15:15:26.319330,-5.001976
2021-04-26 15:15:26.334950,-8.388222
2021-04-26 15:15:26.350580,-11.58373
2021-04-26 15:15:26.366200,-14.9035
2021-04-26 15:15:26.381830,-18.75838
2021-04-26 15:15:26.397460,-23.51649
2021-04-26 15:15:26.413080,-29.29625
2021-04-26 15:15:26.428710,-35.77231
2021-04-26 15:15:26.444330,-42.0776
2021-04-26 15:15:26.459960,-46.91097
2021-04-26 15:15:26.475580,-48.9834
2021-04-26 15:15:26.491210,-47.46396
2021-04-26 15:15:26.506840,-42.36456
2021-04-26 15:15:26.522460,-34.55879
2021-04-26 15:15:26.538090,-25.50494
2021-04-26 15:15:26.553710,-16.687
2021-04-26 15:15:26.569340,-9.128372
2021-04-26 15:15:26.584960,-3.181168
2021-04-26 15:15:26.600590,1.363373
2021-04-26 15:15:26.616220,4.958771
2021-04-26 15:15:26.647470,10.39984
2021-04-26 15:15:26.663090,12.16997
2021-04-26 15:15:26.678720,13.09457
2021-04-26 15:15:26.694350,13.17774
2021-04-26 15:15:26.709970,12.62483
2021-04-26 15:15:26.725600,11.76333
2021-04-26 15:15:26.741220,10.90594
2021-04-26 15:15:26.756850,10.22479
2021-04-26 15:15:26.772470,9.733093
2021-04-26 15:15:26.788100,9.375778
2021-04-26 15:15:26.803730,9.089584
2021-04-26 15:15:26.819350,8.868729
2021-04-26 15:15:26.834980,8.685211
2021-04-26 15:15:26.850600,8.447525
2021-04-26 15:15:26.866230,7.902985
2021-04-26 15:15:26.881850,6.74295
2021-04-26 15:15:26.897480,4.680252
2021-04-26 15:15:26.913110,1.633194
2021-04-26 15:15:26.928730,-2.203629
2021-04-26 15:15:26.944360,-6.436768
2021-04-26 15:15:26.959980,-10.62138
2021-04-26 15:15:26.975610,-14.44942
2021-04-26 15:15:26.991230,-17.87045
2021-04-26 15:15:27.006860,-21.08534
2021-04-26 15:15:27.022490,-24.40149
2021-04-26 15:15:27.038110,-28.1333
2021-04-26 15:15:27.053740,-32.43414
2021-04-26 15:15:27.069360,-37.21896
2021-04-26 15:15:27.084990,-42.1075
2021-04-26 15:15:27.100610,-46.43251
2021-04-26 15:15:27.116240,-49.31721
2021-04-26 15:15:27.131870,-49.84305
2021-04-26 15:15:27.147490,-47.31664
2021-04-26 15:15:27.163120,-41.57481
2021-04-26 15:15:27.178740,-33.13522
2021-04-26 15:15:27.194370,-23.13884
2021-04-26 15:15:27.209990,-13.01317
2021-04-26 15:15:27.225620,-4.037201
2021-04-26 15:15:27.241250,3.043404
2021-04-26 15:15:27.256870,8.110092
2021-04-26 15:15:27.272500,11.5134
2021-04-26 15:15:27.288120,13.77142
2021-04-26 15:15:27.303750,15.25404
2021-04-26 15:15:27.319370,16.13377
2021-04-26 15:15:27.335000,16.44337
2021-04-26 15:15:27.350630,16.31564
2021-04-26 15:15:27.366250,16.05522
2021-04-26 15:15:27.381880,16.10944
2021-04-26 15:15:27.397500,16.90299
2021-04-26 15:15:27.413130,18.59445
2021-04-26 15:15:27.428750,21.02362
2021-04-26 15:15:27.444380,23.7636
2021-04-26 15:15:27.460010,26.26993
2021-04-26 15:15:27.475630,28.10009
2021-04-26 15:15:27.491260,29.05764
2021-04-26 15:15:27.506880,29.1338
2021-04-26 15:15:27.522510,28.44484
2021-04-26 15:15:27.538130,27.12202
2021-04-26 15:15:27.553760,25.19347
2021-04-26 15:15:27.569390,22.56908
2021-04-26 15:15:27.585010,19.17197
2021-04-26 15:15:27.600640,15.019
2021-04-26 15:15:27.616260,10.24236
2021-04-26 15:15:27.631890,5.123909
2021-04-26 15:15:27.647510,-0.001060486
2021-04-26 15:15:27.678770,-9.432594
2021-04-26 15:15:27.694390,-13.85417
2021-04-26 15:15:27.710020,-18.5383
2021-04-26 15:15:27.725640,-23.90083
2021-04-26 15:15:27.741270,-30.06538
2021-04-26 15:15:27.756890,-36.65232
2021-04-26 15:15:27.772520,-42.72361
2021-04-26 15:15:27.788150,-46.98452
2021-04-26 15:15:27.803770,-48.22693
2021-04-26 15:15:27.819400,-45.74566
2021-04-26 15:15:27.835020,-39.65878
2021-04-26 15:15:27.850650,-30.80544
2021-04-26 15:15:27.866270,-20.4483
2021-04-26 15:15:27.881900,-9.879128
2021-04-26 15:15:27.897530,-0.109024
2021-04-26 15:15:27.913150,8.189819
2021-04-26 15:15:27.928780,14.64854
2021-04-26 15:15:27.944400,19.1049
2021-04-26 15:15:27.960030,21.62118
2021-04-26 15:15:27.975650,22.47227
2021-04-26 15:15:27.991280,22.24802
2021-04-26 15:15:28.006910,21.66391
2021-04-26 15:15:28.022530,21.39984
2021-04-26 15:15:28.038160,21.87038
2021-04-26 15:15:28.053780,23.13346
2021-04-26 15:15:28.069410,24.89286
2021-04-26 15:15:28.085030,26.6286
2021-04-26 15:15:28.100660,27.82785
2021-04-26 15:15:28.116290,28.13838
2021-04-26 15:15:28.131910,27.48484
2021-04-26 15:15:28.147540,26.0819
2021-04-26 15:15:28.163160,24.30245
2021-04-26 15:15:28.178790,22.53147
2021-04-26 15:15:28.194410,20.98201
2021-04-26 15:15:28.210040,19.65832
2021-04-26 15:15:28.225670,18.32422
2021-04-26 15:15:28.241290,16.66156
2021-04-26 15:15:28.256920,14.38874
2021-04-26 15:15:28.272540,11.35767
2021-04-26 15:15:28.288170,7.570183
2021-04-26 15:15:28.303790,3.098389
2021-04-26 15:15:28.319420,-1.956787
2021-04-26 15:15:28.335050,-7.544006
2021-04-26 15:15:28.350670,-13.61162
2021-04-26 15:15:28.366300,-20.12241
2021-04-26 15:15:28.381920,-26.94474
2021-04-26 15:15:28.397550,-33.781
2021-04-26 15:15:28.413170,-40.09031
2021-04-26 15:15:28.428800,-45.09522
2021-04-26 15:15:28.444430,-47.9409
2021-04-26 15:15:28.460050,-47.92046
2021-04-26 15:15:28.475680,-44.77526
2021-04-26 15:15:28.491300,-38.78053
2021-04-26 15:15:28.506930,-30.75561
2021-04-26 15:15:28.522550,-21.75226
2021-04-26 15:15:28.538180,-12.7674
2021-04-26 15:15:28.553810,-4.48719
2021-04-26 15:15:28.569430,2.795223
2021-04-26 15:15:28.585060,9.046501
2021-04-26 15:15:28.600680,14.35239
2021-04-26 15:15:28.616310,18.7574
2021-04-26 15:15:28.631930,22.24394
2021-04-26 15:15:28.647560,24.75004
2021-04-26 15:15:28.663190,26.26281
2021-04-26 15:15:28.678810,26.82777
2021-04-26 15:15:28.694440,26.54287
2021-04-26 15:15:28.710060,25.59982
2021-04-26 15:15:28.725690,24.28027
2021-04-26 15:15:28.741310,22.89428
2021-04-26 15:15:28.756940,21.79338
2021-04-26 15:15:28.772570,21.21749
2021-04-26 15:15:28.788190,21.26662
2021-04-26 15:15:28.803820,21.8717
2021-04-26 15:15:28.819440,22.82399
2021-04-26 15:15:28.835070,23.86302
2021-04-26 15:15:28.866320,25.26113
2021-04-26 15:15:28.881950,25.20699
2021-04-26 15:15:28.897570,24.33532
2021-04-26 15:15:28.913200,22.39515
2021-04-26 15:15:28.928820,19.22496
2021-04-26 15:15:28.944450,14.86589
2021-04-26 15:15:28.960070,9.640526
2021-04-26 15:15:28.975700,4.092155
2021-04-26 15:15:28.991330,-1.167343
2021-04-26 15:15:29.006950,-5.693771
2021-04-26 15:15:29.022580,-9.37738
2021-04-26 15:15:29.038200,-12.49472
2021-04-26 15:15:29.053830,-15.61408
2021-04-26 15:15:29.069460,-19.37991
2021-04-26 15:15:29.085080,-24.2674
2021-04-26 15:15:29.100710,-30.33871
2021-04-26 15:15:29.116330,-37.1534
2021-04-26 15:15:29.131960,-43.79915
2021-04-26 15:15:29.147580,-49.08451
2021-04-26 15:15:29.163210,-51.85054
2021-04-26 15:15:29.178840,-51.29843
2021-04-26 15:15:29.194460,-47.31211
2021-04-26 15:15:29.210090,-40.46003
2021-04-26 15:15:29.225710,-31.87671
2021-04-26 15:15:29.241340,-22.86109
2021-04-26 15:15:29.256960,-14.44209
2021-04-26 15:15:29.272590,-7.165039
2021-04-26 15:15:29.288220,-1.082874
2021-04-26 15:15:29.303840,4.016045
2021-04-26 15:15:29.319470,8.306976
2021-04-26 15:15:29.335090,11.74213
2021-04-26 15:15:29.350720,14.11166
2021-04-26 15:15:29.366340,15.20286
2021-04-26 15:15:29.381970,15.07487
2021-04-26 15:15:29.397600,14.09663
2021-04-26 15:15:29.413220,12.87954
2021-04-26 15:15:29.428850,12.02978
2021-04-26 15:15:29.444470,11.89165
2021-04-26 15:15:29.460100,12.47978
2021-04-26 15:15:29.475720,13.49076
2021-04-26 15:15:29.491350,14.5487
2021-04-26 15:15:29.506980,15.32099
2021-04-26 15:15:29.522600,15.62588
2021-04-26 15:15:29.538230,15.4475
2021-04-26 15:15:29.553850,14.81115
2021-04-26 15:15:29.569480,13.68528
2021-04-26 15:15:29.585100,11.96677
2021-04-26 15:15:29.600730,9.568913
2021-04-26 15:15:29.616360,6.517494
2021-04-26 15:15:29.631980,3.02272
2021-04-26 15:15:29.647610,-0.5961494
2021-04-26 15:15:29.663230,-4.083561
2021-04-26 15:15:29.678860,-7.37569
2021-04-26 15:15:29.694480,-10.66142
2021-04-26 15:15:29.710110,-14.2715
2021-04-26 15:15:29.725740,-18.5506
2021-04-26 15:15:29.741360,-23.63786
2021-04-26 15:15:29.756990,-29.28592
2021-04-26 15:15:29.772610,-34.8579
2021-04-26 15:15:29.788240,-39.43966
2021-04-26 15:15:29.803860,-42.05731
2021-04-26 15:15:29.819490,-41.95889
2021-04-26 15:15:29.835120,-38.89536
2021-04-26 15:15:29.850740,-33.14738
2021-04-26 15:15:29.866370,-25.48711
2021-04-26 15:15:29.881990,-16.89103
2021-04-26 15:15:29.897620,-8.320734
2021-04-26 15:15:29.928870,6.143991
2021-04-26 15:15:29.944500,11.46355
2021-04-26 15:15:29.960120,15.45514
2021-04-26 15:15:29.975750,18.17348
2021-04-26 15:15:29.991370,19.75435
2021-04-26 15:15:30.007000,20.47211
2021-04-26 15:15:30.022620,20.65984
2021-04-26 15:15:30.038250,20.72554
2021-04-26 15:15:30.053880,21.00651
2021-04-26 15:15:30.069500,21.65689
2021-04-26 15:15:30.085130,22.61704
2021-04-26 15:15:30.100750,23.65051
2021-04-26 15:15:30.116380,24.47198
2021-04-26 15:15:30.132000,24.8383
2021-04-26 15:15:30.147630,24.728
2021-04-26 15:15:30.163260,24.29465
2021-04-26 15:15:30.178880,23.80885
2021-04-26 15:15:30.194510,23.50163
2021-04-26 15:15:30.210130,23.42993
2021-04-26 15:15:30.225760,23.40247
2021-04-26 15:15:30.241380,22.99833
2021-04-26 15:15:30.257010,21.79785
2021-04-26 15:15:30.272640,19.48206
2021-04-26 15:15:30.288260,16.00677
2021-04-26 15:15:30.303890,11.58177
2021-04-26 15:15:30.319510,6.590057
2021-04-26 15:15:30.335140,1.454157
2021-04-26 15:15:30.350760,-3.468514
2021-04-26 15:15:30.366390,-7.99247
2021-04-26 15:15:30.382020,-12.11365
2021-04-26 15:15:30.397640,-16.01751
2021-04-26 15:15:30.413270,-20.02724
2021-04-26 15:15:30.428890,-24.47329
2021-04-26 15:15:30.444520,-29.50304
2021-04-26 15:15:30.460140,-34.89234
2021-04-26 15:15:30.475770,-39.94547
2021-04-26 15:15:30.491400,-43.62713
2021-04-26 15:15:30.507020,-44.82371
2021-04-26 15:15:30.522650,-42.75725
2021-04-26 15:15:30.538270,-37.27045
2021-04-26 15:15:30.553900,-28.85886
2021-04-26 15:15:30.569520,-18.53781
2021-04-26 15:15:30.585150,-7.478575
2021-04-26 15:15:30.600780,3.30251
2021-04-26 15:15:30.616400,13.05311
2021-04-26 15:15:30.632030,21.27822
2021-04-26 15:15:30.647650,27.63267
2021-04-26 15:15:30.663280,31.8359
2021-04-26 15:15:30.678900,33.73811
2021-04-26 15:15:30.694530,33.40807
2021-04-26 15:15:30.710160,31.25791
2021-04-26 15:15:30.725780,28.03922
2021-04-26 15:15:30.741410,24.65889
2021-04-26 15:15:30.757030,21.96621
2021-04-26 15:15:30.772660,20.44365
2021-04-26 15:15:30.788280,20.12804
2021-04-26 15:15:30.803910,20.6426
2021-04-26 15:15:30.819540,21.41018
2021-04-26 15:15:30.835160,21.87982
2021-04-26 15:15:30.850790,21.73155
2021-04-26 15:15:30.866410,20.90332
2021-04-26 15:15:30.882040,19.45625
2021-04-26 15:15:30.897660,17.48642
2021-04-26 15:15:30.913290,15.0241
2021-04-26 15:15:30.928920,12.06187
2021-04-26 15:15:30.944540,8.643484
2021-04-26 15:15:30.960170,4.942427
2021-04-26 15:15:30.975790,1.22574
2021-04-26 15:15:30.991420,-2.197608
2021-04-26 15:15:31.007040,-5.106103
2021-04-26 15:15:31.022670,-7.496496
2021-04-26 15:15:31.038300,-9.558987
2021-04-26 15:15:31.053920,-11.69486
2021-04-26 15:15:31.069550,-14.39888
2021-04-26 15:15:31.085170,-18.15989
2021-04-26 15:15:31.100800,-23.23624
2021-04-26 15:15:31.116420,-29.50624
2021-04-26 15:15:31.132050,-36.27693
2021-04-26 15:15:31.147680,-42.37685
2021-04-26 15:15:31.163300,-46.41038
2021-04-26 15:15:31.178930,-47.16795
2021-04-26 15:15:31.194550,-44.10602
2021-04-26 15:15:31.210180,-37.51674
2021-04-26 15:15:31.225800,-28.41222
2021-04-26 15:15:31.241430,-18.17657
2021-04-26 15:15:31.257060,-8.05835
2021-04-26 15:15:31.272680,1.121215
2021-04-26 15:15:31.288310,8.995472
2021-04-26 15:15:31.303930,15.51345
2021-04-26 15:15:31.319560,20.71326
2021-04-26 15:15:31.335190,24.57119
2021-04-26 15:15:31.350810,27.07359
2021-04-26 15:15:31.366440,28.30279
2021-04-26 15:15:31.382060,28.52973
2021-04-26 15:15:31.397690,28.13295
2021-04-26 15:15:31.413310,27.50093
2021-04-26 15:15:31.428940,26.86268
2021-04-26 15:15:31.444570,26.28024
2021-04-26 15:15:31.460190,25.72605
2021-04-26 15:15:31.475820,25.17144
2021-04-26 15:15:31.491440,24.68127
2021-04-26 15:15:31.507070,24.38077
2021-04-26 15:15:31.522690,24.36772
2021-04-26 15:15:31.538320,24.62456
2021-04-26 15:15:31.553950,24.9419
2021-04-26 15:15:31.569570,24.97076
2021-04-26 15:15:31.585200,24.32486
2021-04-26 15:15:31.600820,22.67861
2021-04-26 15:15:31.616450,19.86513
2021-04-26 15:15:31.632070,15.98313
2021-04-26 15:15:31.647700,11.35444
2021-04-26 15:15:31.663330,6.492739
2021-04-26 15:15:31.678950,1.91039
2021-04-26 15:15:31.694580,-2.084109
2021-04-26 15:15:31.710200,-5.506479
2021-04-26 15:15:31.725830,-8.718164
2021-04-26 15:15:31.741450,-12.28501
2021-04-26 15:15:31.757080,-16.73692
2021-04-26 15:15:31.772710,-22.33362
2021-04-26 15:15:31.788330,-28.95607
2021-04-26 15:15:31.803960,-36.09175
2021-04-26 15:15:31.819580,-42.91348
2021-04-26 15:15:31.835210,-48.40353
2021-04-26 15:15:31.850830,-51.52876
2021-04-26 15:15:31.866460,-51.49777
2021-04-26 15:15:31.882090,-47.96716
2021-04-26 15:15:31.897710,-41.23141
2021-04-26 15:15:31.913340,-32.20681
2021-04-26 15:15:31.928960,-22.19774
2021-04-26 15:15:31.944590,-12.50419
2021-04-26 15:15:31.960210,-4.050221
2021-04-26 15:15:31.975840,2.786531
2021-04-26 15:15:31.991470,8.106093
2021-04-26 15:15:32.007090,12.24474
2021-04-26 15:15:32.022720,15.4796
2021-04-26 15:15:32.038340,17.96893
2021-04-26 15:15:32.053970,19.66766
2021-04-26 15:15:32.069590,20.52325
2021-04-26 15:15:32.085220,20.53727
2021-04-26 15:15:32.100850,19.88036
2021-04-26 15:15:32.116470,18.79344
2021-04-26 15:15:32.132100,17.54747
2021-04-26 15:15:32.147720,16.36786
2021-04-26 15:15:32.163350,15.38187
2021-04-26 15:15:32.178970,14.62561
2021-04-26 15:15:32.194600,14.03594
2021-04-26 15:15:32.210230,13.52446
2021-04-26 15:15:32.225850,12.95341
2021-04-26 15:15:32.241480,12.20756
2021-04-26 15:15:32.257100,11.20119
2021-04-26 15:15:32.272730,9.869065
2021-04-26 15:15:32.288350,8.145764
2021-04-26 15:15:32.303980,5.978983
2021-04-26 15:15:32.319610,3.34375
2021-04-26 15:15:32.335230,0.2778442
2021-04-26 15:15:32.350860,-3.121323
2021-04-26 15:15:32.366480,-6.737804
2021-04-26 15:15:32.382110,-10.55592
2021-04-26 15:15:32.397730,-14.66419
2021-04-26 15:15:32.413360,-19.23486
2021-04-26 15:15:32.428990,-24.35503
2021-04-26 15:15:32.444610,-29.79593
2021-04-26 15:15:32.460240,-34.8721
2021-04-26 15:15:32.475860,-38.5387
2021-04-26 15:15:32.491490,-39.67865
2021-04-26 15:15:32.507110,-37.49463
2021-04-26 15:15:32.522740,-31.96818
2021-04-26 15:15:32.538370,-23.8597
2021-04-26 15:15:32.553990,-14.54833
2021-04-26 15:15:32.569620,-5.513129
2021-04-26 15:15:32.585240,2.073733
2021-04-26 15:15:32.600870,7.676056
2021-04-26 15:15:32.616490,11.346
2021-04-26 15:15:32.632120,13.49672
2021-04-26 15:15:32.647750,14.62815
2021-04-26 15:15:32.663370,15.09946
2021-04-26 15:15:32.679000,15.13327
2021-04-26 15:15:32.694620,14.8155
2021-04-26 15:15:32.710250,14.25668
2021-04-26 15:15:32.725870,13.60598
2021-04-26 15:15:32.741500,13.10915
2021-04-26 15:15:32.757130,13.09238
2021-04-26 15:15:32.772750,13.91183
2021-04-26 15:15:32.788380,15.82751
2021-04-26 15:15:32.804000,18.84955
2021-04-26 15:15:32.819630,22.61318
2021-04-26 15:15:32.835250,26.39154
2021-04-26 15:15:32.850880,29.3232
2021-04-26 15:15:32.866510,30.75234
2021-04-26 15:15:32.882130,30.48674
2021-04-26 15:15:32.897760,28.88917
2021-04-26 15:15:32.913380,26.60959
2021-04-26 15:15:32.929010,24.25233
2021-04-26 15:15:32.944630,22.03741
2021-04-26 15:15:32.960260,19.80206
2021-04-26 15:15:32.975890,17.17929
2021-04-26 15:15:32.991510,13.92736
2021-04-26 15:15:33.007140,10.07841
2021-04-26 15:15:33.022760,5.842072
2021-04-26 15:15:33.038390,1.302953
2021-04-26 15:15:33.054010,-3.808593
2021-04-26 15:15:33.069640,-10.06903
2021-04-26 15:15:33.085270,-17.98996
2021-04-26 15:15:33.100890,-27.52185
2021-04-26 15:15:33.116520,-37.79169
2021-04-26 15:15:33.132140,-47.18497
2021-04-26 15:15:33.147770,-53.85746
2021-04-26 15:15:33.163390,-56.39787
2021-04-26 15:15:33.179020,-54.29704
2021-04-26 15:15:33.194650,-48.09362
2021-04-26 15:15:33.210270,-39.0838
2021-04-26 15:15:33.225900,-28.84503
2021-04-26 15:15:33.241520,-18.76706
2021-04-26 15:15:33.257150,-9.790982
2021-04-26 15:15:33.272770,-2.406543
2021-04-26 15:15:33.288400,3.240412
2021-04-26 15:15:33.304030,7.211678
2021-04-26 15:15:33.319650,9.708597
2021-04-26 15:15:33.335280,11.05634
2021-04-26 15:15:33.350900,11.66055
2021-04-26 15:15:33.366530,11.9675
2021-04-26 15:15:33.382150,12.2976
2021-04-26 15:15:33.413410,13.59663
2021-04-26 15:15:33.429030,14.49155
2021-04-26 15:15:33.444660,15.40011
2021-04-26 15:15:33.460280,16.21793
2021-04-26 15:15:33.475910,16.83404
2021-04-26 15:15:33.491530,17.11804
2021-04-26 15:15:33.507160,16.89688
2021-04-26 15:15:33.522790,16.02621
2021-04-26 15:15:33.538410,14.4539
2021-04-26 15:15:33.554040,12.26705
2021-04-26 15:15:33.569660,9.65975
2021-04-26 15:15:33.585290,6.867591
2021-04-26 15:15:33.600910,4.041655
2021-04-26 15:15:33.616540,1.196811
2021-04-26 15:15:33.632170,-1.730445
2021-04-26 15:15:33.647790,-4.828983
2021-04-26 15:15:33.663420,-8.161356
2021-04-26 15:15:33.679040,-11.7851
2021-04-26 15:15:33.694670,-15.80516
2021-04-26 15:15:33.710290,-20.36157
2021-04-26 15:15:33.725920,-25.53088
2021-04-26 15:15:33.741550,-31.19713
2021-04-26 15:15:33.757170,-36.91808
2021-04-26 15:15:33.772800,-41.91798
2021-04-26 15:15:33.788420,-45.26232
2021-04-26 15:15:33.804050,-46.07417
2021-04-26 15:15:33.819670,-43.79282
2021-04-26 15:15:33.835300,-38.36849
2021-04-26 15:15:33.850930,-30.27853
2021-04-26 15:15:33.866550,-20.43695
2021-04-26 15:15:33.882180,-9.954536
2021-04-26 15:15:33.897800,0.08776093
2021-04-26 15:15:33.913430,8.885908
2021-04-26 15:15:33.929050,15.97365
2021-04-26 15:15:33.944680,21.22131
2021-04-26 15:15:33.960310,24.76376
2021-04-26 15:15:33.975930,26.84207
2021-04-26 15:15:33.991560,27.77468
2021-04-26 15:15:34.007180,27.875
2021-04-26 15:15:34.022810,27.49306
2021-04-26 15:15:34.038440,26.92675
2021-04-26 15:15:34.054060,26.4021
2021-04-26 15:15:34.069690,25.99589
2021-04-26 15:15:34.085310,25.66801
2021-04-26 15:15:34.100940,25.29107
2021-04-26 15:15:34.116560,24.7761
2021-04-26 15:15:34.132190,24.09001
2021-04-26 15:15:34.147820,23.2598
2021-04-26 15:15:34.163440,22.3022
2021-04-26 15:15:34.179070,21.19952
2021-04-26 15:15:34.194690,19.88449
2021-04-26 15:15:34.210320,18.23557
2021-04-26 15:15:34.225940,16.16669
2021-04-26 15:15:34.241570,13.62391
2021-04-26 15:15:34.257200,10.61014
2021-04-26 15:15:34.272820,7.170351
2021-04-26 15:15:34.288450,3.366466
2021-04-26 15:15:34.304070,-0.7283211
2021-04-26 15:15:34.319700,-5.049067
2021-04-26 15:15:34.335320,-9.509824
2021-04-26 15:15:34.350950,-14.08673
2021-04-26 15:15:34.366580,-18.82481
2021-04-26 15:15:34.382200,-23.86069
2021-04-26 15:15:34.397830,-29.33194
2021-04-26 15:15:34.413450,-35.17089
2021-04-26 15:15:34.429080,-40.97743
2021-04-26 15:15:34.444700,-45.94264
2021-04-26 15:15:34.460330,-49.03246
2021-04-26 15:15:34.475960,-49.26915
2021-04-26 15:15:34.491580,-46.14486
2021-04-26 15:15:34.507210,-39.86578
2021-04-26 15:15:34.522830,-31.33506
2021-04-26 15:15:34.538460,-21.89889
2021-04-26 15:15:34.554080,-12.86341
2021-04-26 15:15:34.569710,-5.155886
2021-04-26 15:15:34.585340,0.8630486
2021-04-26 15:15:34.600960,5.285677
2021-04-26 15:15:34.616590,8.452978
2021-04-26 15:15:34.632210,10.71859
2021-04-26 15:15:34.647840,12.31724
2021-04-26 15:15:34.663460,13.38369
2021-04-26 15:15:34.679090,13.97152
2021-04-26 15:15:34.694720,14.17063
2021-04-26 15:15:34.710340,14.12949
2021-04-26 15:15:34.725970,14.09034
2021-04-26 15:15:34.741590,14.30029
2021-04-26 15:15:34.757220,14.95078
2021-04-26 15:15:34.772840,16.02785
2021-04-26 15:15:34.788470,17.2803
2021-04-26 15:15:34.804100,18.31605
2021-04-26 15:15:34.819720,18.73801
2021-04-26 15:15:34.835350,18.31325
2021-04-26 15:15:34.850970,17.04573
2021-04-26 15:15:34.866600,15.10906
2021-04-26 15:15:34.882220,12.70523
2021-04-26 15:15:34.897850,9.96526
2021-04-26 15:15:34.913480,6.948246
2021-04-26 15:15:34.929100,3.672228
2021-04-26 15:15:34.944730,0.2369118
2021-04-26 15:15:34.960350,-3.254765
2021-04-26 15:15:34.975980,-6.706348
2021-04-26 15:15:34.991600,-10.19266
2021-04-26 15:15:35.007230,-13.94114
2021-04-26 15:15:35.022860,-18.20554
2021-04-26 15:15:35.038480,-23.0457
2021-04-26 15:15:35.054110,-28.13804
2021-04-26 15:15:35.069730,-32.72828
2021-04-26 15:15:35.085360,-35.78914
2021-04-26 15:15:35.100980,-36.36037
2021-04-26 15:15:35.116610,-33.84283
2021-04-26 15:15:35.132240,-28.17393
2021-04-26 15:15:35.147860,-19.9026
2021-04-26 15:15:35.163490,-10.01091
2021-04-26 15:15:35.179110,0.3268013
2021-04-26 15:15:35.194740,10.00776
2021-04-26 15:15:35.210360,18.21151
2021-04-26 15:15:35.225990,24.47927
2021-04-26 15:15:35.241620,28.67665
2021-04-26 15:15:35.257240,30.93047
2021-04-26 15:15:35.272870,31.55064
2021-04-26 15:15:35.288490,30.93394
2021-04-26 15:15:35.304120,29.52155
2021-04-26 15:15:35.319740,27.72245
2021-04-26 15:15:35.335370,25.84793
2021-04-26 15:15:35.351000,24.07048
2021-04-26 15:15:35.366620,22.47047
2021-04-26 15:15:35.382250,21.09554
2021-04-26 15:15:35.397870,20.02969
2021-04-26 15:15:35.413500,19.39935
2021-04-26 15:15:35.429120,19.28697
2021-04-26 15:15:35.444750,19.60717
2021-04-26 15:15:35.460380,20.05017
2021-04-26 15:15:35.476000,20.14881
2021-04-26 15:15:35.491630,19.42937
2021-04-26 15:15:35.507250,17.61516
2021-04-26 15:15:35.522880,14.73926
2021-04-26 15:15:35.538500,11.10056
2021-04-26 15:15:35.554130,7.082344
2021-04-26 15:15:35.569760,3.044258
2021-04-26 15:15:35.585380,-0.834053
2021-04-26 15:15:35.616630,-8.197681
2021-04-26 15:15:35.632260,-12.07587
2021-04-26 15:15:35.647880,-16.51482
2021-04-26 15:15:35.663510,-21.86168
2021-04-26 15:15:35.679140,-28.23648
2021-04-26 15:15:35.694760,-35.35798
2021-04-26 15:15:35.710390,-42.3679
2021-04-26 15:15:35.726010,-47.98952
2021-04-26 15:15:35.741640,-50.84717
2021-04-26 15:15:35.757260,-49.9838
2021-04-26 15:15:35.772890,-45.19088
2021-04-26 15:15:35.788520,-37.08604
2021-04-26 15:15:35.804140,-26.9006
2021-04-26 15:15:35.819770,-16.04849
2021-04-26 15:15:35.835390,-5.755165
2021-04-26 15:15:35.851020,3.171143
2021-04-26 15:15:35.866640,10.32422
2021-04-26 15:15:35.882270,15.62249
2021-04-26 15:15:35.897900,19.18979
2021-04-26 15:15:35.913520,21.25218
2021-04-26 15:15:35.929150,22.12566
2021-04-26 15:15:35.944770,22.13511
2021-04-26 15:15:35.960400,21.61727
2021-04-26 15:15:35.976020,20.88148
2021-04-26 15:15:35.991650,20.18483
2021-04-26 15:15:36.007280,19.70529
2021-04-26 15:15:36.022900,19.55342
2021-04-26 15:15:36.038530,19.72205
2021-04-26 15:15:36.054150,20.08251
2021-04-26 15:15:36.069780,20.46644
2021-04-26 15:15:36.085400,20.68859
2021-04-26 15:15:36.101030,20.64362
2021-04-26 15:15:36.116660,20.29594
2021-04-26 15:15:36.132280,19.60243
2021-04-26 15:15:36.147910,18.49126
2021-04-26 15:15:36.163530,16.80436
2021-04-26 15:15:36.179160,14.40625
2021-04-26 15:15:36.194790,11.27034
2021-04-26 15:15:36.210410,7.559967
2021-04-26 15:15:36.226040,3.554642
2021-04-26 15:15:36.241660,-0.4284325
2021-04-26 15:15:36.257290,-4.278831
2021-04-26 15:15:36.272910,-8.076439
2021-04-26 15:15:36.288540,-12.09872
2021-04-26 15:15:36.304170,-16.65931
2021-04-26 15:15:36.319790,-21.98665
2021-04-26 15:15:36.335420,-28.08189
2021-04-26 15:15:36.351040,-34.60575
2021-04-26 15:15:36.366670,-40.8659
2021-04-26 15:15:36.382290,-45.84997
2021-04-26 15:15:36.397920,-48.42185
2021-04-26 15:15:36.413550,-47.64831
2021-04-26 15:15:36.429170,-43.09418
2021-04-26 15:15:36.444800,-35.0646
2021-04-26 15:15:36.460420,-24.5844
2021-04-26 15:15:36.476050,-13.08117
2021-04-26 15:15:36.491670,-2.018402
2021-04-26 15:15:36.507300,7.508152
2021-04-26 15:15:36.522930,14.93161
2021-04-26 15:15:36.538550,20.16262
2021-04-26 15:15:36.554180,23.43028
2021-04-26 15:15:36.569800,25.07213
2021-04-26 15:15:36.585430,25.4501
2021-04-26 15:15:36.601050,24.92825
2021-04-26 15:15:36.616680,23.91012
2021-04-26 15:15:36.632310,22.79384
2021-04-26 15:15:36.647930,21.93752
2021-04-26 15:15:36.663560,21.57478
2021-04-26 15:15:36.679180,21.74748
2021-04-26 15:15:36.694810,22.3201
2021-04-26 15:15:36.710430,23.00738
2021-04-26 15:15:36.726060,23.48735
2021-04-26 15:15:36.741690,23.53792
2021-04-26 15:15:36.757310,23.10646
2021-04-26 15:15:36.772940,22.32732
2021-04-26 15:15:36.788560,21.37408
2021-04-26 15:15:36.804190,20.33519
2021-04-26 15:15:36.819810,19.06535
2021-04-26 15:15:36.835440,17.24188
2021-04-26 15:15:36.851070,14.50589
2021-04-26 15:15:36.866690,10.7
2021-04-26 15:15:36.882320,6.005573
2021-04-26 15:15:36.897940,0.9096756
2021-04-26 15:15:36.913570,-3.98893
2021-04-26 15:15:36.929190,-8.258884
2021-04-26 15:15:36.944820,-11.80185
2021-04-26 15:15:36.960450,-14.89936
2021-04-26 15:15:36.976070,-18.00587
2021-04-26 15:15:36.991700,-21.60895
2021-04-26 15:15:37.007320,-25.99362
2021-04-26 15:15:37.022950,-31.18745
2021-04-26 15:15:37.038570,-36.81766
2021-04-26 15:15:37.054200,-42.19656
2021-04-26 15:15:37.069830,-46.35653
2021-04-26 15:15:37.085450,-48.25438
2021-04-26 15:15:37.101080,-47.10018
2021-04-26 15:15:37.116700,-42.59107
2021-04-26 15:15:37.132330,-35.14096
2021-04-26 15:15:37.147950,-25.79236
2021-04-26 15:15:37.163580,-15.89074
2021-04-26 15:15:37.179210,-6.656178
2021-04-26 15:15:37.194830,1.139412
2021-04-26 15:15:37.210460,7.307697
2021-04-26 15:15:37.226080,12.0682
2021-04-26 15:15:37.241710,15.76457
2021-04-26 15:15:37.257330,18.62653
2021-04-26 15:15:37.272960,20.65388
2021-04-26 15:15:37.288590,21.71291
2021-04-26 15:15:37.304210,21.72373
2021-04-26 15:15:37.319840,20.79102
2021-04-26 15:15:37.335460,19.25505
2021-04-26 15:15:37.351090,17.5873
2021-04-26 15:15:37.366710,16.23248
2021-04-26 15:15:37.382340,15.41017
2021-04-26 15:15:37.397970,15.0812
2021-04-26 15:15:37.413590,15.01507
2021-04-26 15:15:37.429220,14.9204
2021-04-26 15:15:37.444840,14.58952
2021-04-26 15:15:37.460470,13.94496
2021-04-26 15:15:37.476090,13.00148
2021-04-26 15:15:37.491720,11.79641
2021-04-26 15:15:37.507350,10.32411
2021-04-26 15:15:37.522970,8.523415
2021-04-26 15:15:37.538600,6.34869
2021-04-26 15:15:37.554220,3.850506
2021-04-26 15:15:37.569850,1.208897
2021-04-26 15:15:37.585470,-1.35527
2021-04-26 15:15:37.601100,-3.737141
2021-04-26 15:15:37.616730,-6.043667
2021-04-26 15:15:37.632350,-8.643105
2021-04-26 15:15:37.647980,-12.02621
2021-04-26 15:15:37.663600,-16.50969
2021-04-26 15:15:37.679230,-21.98021
2021-04-26 15:15:37.694850,-27.76031
2021-04-26 15:15:37.710480,-32.70169
2021-04-26 15:15:37.726110,-35.54911
2021-04-26 15:15:37.757360,-31.69944
2021-04-26 15:15:37.772980,-25.02842
2021-04-26 15:15:37.788610,-16.28078
2021-04-26 15:15:37.804230,-6.703247
2021-04-26 15:15:37.819860,2.509434
2021-04-26 15:15:37.835490,10.45185
2021-04-26 15:15:37.851110,16.63132
2021-04-26 15:15:37.866740,20.97914
2021-04-26 15:15:37.882360,23.7166
2021-04-26 15:15:37.897990,25.23383
2021-04-26 15:15:37.913610,25.89375
2021-04-26 15:15:37.929240,25.99087
2021-04-26 15:15:37.944870,25.6722
2021-04-26 15:15:37.960490,25.01476
2021-04-26 15:15:37.976120,24.09116
2021-04-26 15:15:37.991740,22.98891
2021-04-26 15:15:38.007370,21.7911
2021-04-26 15:15:38.022990,20.60324
2021-04-26 15:15:38.038620,19.46072
2021-04-26 15:15:38.054250,18.36659
2021-04-26 15:15:38.069870,17.35297
2021-04-26 15:15:38.085500,16.41177
2021-04-26 15:15:38.101120,15.51497
2021-04-26 15:15:38.116750,14.57551
2021-04-26 15:15:38.132370,13.43336
2021-04-26 15:15:38.148000,11.8619
2021-04-26 15:15:38.163630,9.633228
2021-04-26 15:15:38.179250,6.571953
2021-04-26 15:15:38.194880,2.645939
2021-04-26 15:15:38.210500,-1.985546
2021-04-26 15:15:38.226130,-7.017506
2021-04-26 15:15:38.241750,-12.0443
2021-04-26 15:15:38.257380,-16.66438
2021-04-26 15:15:38.273010,-20.64252
2021-04-26 15:15:38.288630,-23.99848
2021-04-26 15:15:38.304260,-27.03608
2021-04-26 15:15:38.319880,-30.29031
2021-04-26 15:15:38.335510,-34.30198
2021-04-26 15:15:38.351130,-39.34217
2021-04-26 15:15:38.366760,-45.11546
2021-04-26 15:15:38.382390,-50.68578
2021-04-26 15:15:38.398010,-54.57999
2021-04-26 15:15:38.413640,-55.26653
2021-04-26 15:15:38.429260,-51.71088
2021-04-26 15:15:38.444890,-43.80956
2021-04-26 15:15:38.460520,-32.5675
2021-04-26 15:15:38.476140,-19.73038
2021-04-26 15:15:38.491770,-7.223999
2021-04-26 15:15:38.507390,3.470669
2021-04-26 15:15:38.523020,11.67577
2021-04-26 15:15:38.538640,17.46451
2021-04-26 15:15:38.554270,21.32603
2021-04-26 15:15:38.569900,23.82537
2021-04-26 15:15:38.585520,25.34276
2021-04-26 15:15:38.601150,26.09114
2021-04-26 15:15:38.616770,26.19365
2021-04-26 15:15:38.632400,25.82592
2021-04-26 15:15:38.648020,25.20667
2021-04-26 15:15:38.663650,24.53547
2021-04-26 15:15:38.679280,23.93159
2021-04-26 15:15:38.694900,23.42248
2021-04-26 15:15:38.710530,22.97095
2021-04-26 15:15:38.726150,22.50739
2021-04-26 15:15:38.741780,21.98243
2021-04-26 15:15:38.757400,21.37324
2021-04-26 15:15:38.773030,20.63174
2021-04-26 15:15:38.788660,19.71697
2021-04-26 15:15:38.804280,18.55534
2021-04-26 15:15:38.819910,17.06546
2021-04-26 15:15:38.835530,15.15432
2021-04-26 15:15:38.851160,12.74299
2021-04-26 15:15:38.866780,9.817032
2021-04-26 15:15:38.882410,6.440681
2021-04-26 15:15:38.898040,2.772575
2021-04-26 15:15:38.929290,-4.753792
2021-04-26 15:15:38.944910,-8.441273
2021-04-26 15:15:38.960540,-12.24312
2021-04-26 15:15:38.976160,-16.46129
2021-04-26 15:15:38.991790,-21.39752
2021-04-26 15:15:39.007420,-27.11605
2021-04-26 15:15:39.023040,-33.20681
2021-04-26 15:15:39.038670,-38.76209
2021-04-26 15:15:39.054290,-42.52415
2021-04-26 15:15:39.069920,-43.27242
2021-04-26 15:15:39.085540,-40.28259
2021-04-26 15:15:39.101170,-33.68542
2021-04-26 15:15:39.116800,-24.46183
2021-04-26 15:15:39.132420,-14.14687
2021-04-26 15:15:39.148050,-4.291782
2021-04-26 15:15:39.163670,4.008511
2021-04-26 15:15:39.179300,10.37694
2021-04-26 15:15:39.194920,15.00132
2021-04-26 15:15:39.210550,18.33071
2021-04-26 15:15:39.226180,20.72022
2021-04-26 15:15:39.241800,22.26997
2021-04-26 15:15:39.257430,22.96408
2021-04-26 15:15:39.273050,22.86196
2021-04-26 15:15:39.288680,22.22974
2021-04-26 15:15:39.304300,21.48637
2021-04-26 15:15:39.319930,21.02504
2021-04-26 15:15:39.335560,21.013
2021-04-26 15:15:39.351180,21.3744
2021-04-26 15:15:39.366810,21.88535
2021-04-26 15:15:39.382430,22.34006
2021-04-26 15:15:39.398060,22.70843
2021-04-26 15:15:39.413680,23.02997
2021-04-26 15:15:39.429310,23.32064
2021-04-26 15:15:39.444940,23.41397
2021-04-26 15:15:39.460560,22.97571
2021-04-26 15:15:39.476190,21.61709
2021-04-26 15:15:39.491810,19.10188
2021-04-26 15:15:39.507440,15.454
2021-04-26 15:15:39.523060,10.98514
2021-04-26 15:15:39.538690,6.142906
2021-04-26 15:15:39.554320,1.347595
2021-04-26 15:15:39.569940,-3.124977
2021-04-26 15:15:39.585570,-7.17271
2021-04-26 15:15:39.601190,-10.84155
2021-04-26 15:15:39.616820,-14.27993
2021-04-26 15:15:39.632440,-17.77707
2021-04-26 15:15:39.648070,-21.70657
2021-04-26 15:15:39.663700,-26.42431
2021-04-26 15:15:39.679320,-32.02217
2021-04-26 15:15:39.694950,-38.11707
2021-04-26 15:15:39.710570,-43.71095
2021-04-26 15:15:39.726200,-47.37835
2021-04-26 15:15:39.741820,-47.73559
2021-04-26 15:15:39.757450,-43.99409
2021-04-26 15:15:39.773080,-36.35656
2021-04-26 15:15:39.788700,-26.03039
2021-04-26 15:15:39.804330,-14.79657
2021-04-26 15:15:39.819950,-4.372932
2021-04-26 15:15:39.835580,4.103752
2021-04-26 15:15:39.851200,10.29015
2021-04-26 15:15:39.866830,14.46928
2021-04-26 15:15:39.882460,17.13187
2021-04-26 15:15:39.898080,18.71714
2021-04-26 15:15:39.913710,19.41665
2021-04-26 15:15:39.929330,19.28724
2021-04-26 15:15:39.944960,18.40633
2021-04-26 15:15:39.960580,16.98611
2021-04-26 15:15:39.976210,15.35612
2021-04-26 15:15:39.991840,13.86475
2021-04-26 15:15:40.007460,12.75444
2021-04-26 15:15:40.023090,12.09591
2021-04-26 15:15:40.054340,11.69629
2021-04-26 15:15:40.069960,11.52498
2021-04-26 15:15:40.085590,11.09464
2021-04-26 15:15:40.101220,10.24825
2021-04-26 15:15:40.116840,8.938053
2021-04-26 15:15:40.132470,7.221905
2021-04-26 15:15:40.148090,5.228909
2021-04-26 15:15:40.163720,3.063427
2021-04-26 15:15:40.179340,0.7833252
2021-04-26 15:15:40.194970,-1.607403
2021-04-26 15:15:40.210600,-4.082428
2021-04-26 15:15:40.226220,-6.477772
2021-04-26 15:15:40.241850,-8.583683
2021-04-26 15:15:40.257470,-10.24167
2021-04-26 15:15:40.273100,-11.54437
2021-04-26 15:15:40.288720,-12.89396
2021-04-26 15:15:40.304350,-14.91769
2021-04-26 15:15:40.319980,-18.02185
2021-04-26 15:15:40.335600,-22.07908
2021-04-26 15:15:40.351230,-26.29029
2021-04-26 15:15:40.366850,-29.40486
2021-04-26 15:15:40.382480,-30.31867
2021-04-26 15:15:40.398100,-28.59434
2021-04-26 15:15:40.413730,-24.61213
2021-04-26 15:15:40.429360,-19.38527
2021-04-26 15:15:40.444980,-13.96579
2021-04-26 15:15:40.460610,-8.927052
2021-04-26 15:15:40.476230,-4.21159
2021-04-26 15:15:40.491860,0.6757088
2021-04-26 15:15:40.507480,6.153267
2021-04-26 15:15:40.523110,12.17373
2021-04-26 15:15:40.538740,18.09876
2021-04-26 15:15:40.554360,23.00189
2021-04-26 15:15:40.569990,26.08308
2021-04-26 15:15:40.585610,27.0644
2021-04-26 15:15:40.601240,26.3347
2021-04-26 15:15:40.616860,24.71355
2021-04-26 15:15:40.632490,23.06691
2021-04-26 15:15:40.648120,21.9465
2021-04-26 15:15:40.663740,21.4449
2021-04-26 15:15:40.679370,21.25631
2021-04-26 15:15:40.694990,20.97171
2021-04-26 15:15:40.710620,20.30237
2021-04-26 15:15:40.726240,19.20636
2021-04-26 15:15:40.741870,17.83492
2021-04-26 15:15:40.757500,16.30872
2021-04-26 15:15:40.773120,14.55979
2021-04-26 15:15:40.788750,12.33331
2021-04-26 15:15:40.804370,9.302361
2021-04-26 15:15:40.820000,5.308067
2021-04-26 15:15:40.835620,0.5346222
2021-04-26 15:15:40.851250,-4.548439
2021-04-26 15:15:40.866880,-9.367767
2021-04-26 15:15:40.882500,-13.53116
2021-04-26 15:15:40.898130,-17.05219
2021-04-26 15:15:40.913750,-20.36331
2021-04-26 15:15:40.929380,-24.10892
2021-04-26 15:15:40.945000,-28.77178
2021-04-26 15:15:40.960630,-34.34683
2021-04-26 15:15:40.976260,-40.19534
2021-04-26 15:15:40.991880,-45.16084
2021-04-26 15:15:41.007510,-47.91234
2021-04-26 15:15:41.023130,-47.35907
2021-04-26 15:15:41.038760,-43.0447
2021-04-26 15:15:41.054390,-35.29592
2021-04-26 15:15:41.070010,-25.1498
2021-04-26 15:15:41.085640,-14.05417
2021-04-26 15:15:41.101260,-3.45702
2021-04-26 15:15:41.116890,5.578892
2021-04-26 15:15:41.132510,12.55856
2021-04-26 15:15:41.148140,17.53678
2021-04-26 15:15:41.163770,20.93121
2021-04-26 15:15:41.179390,23.20773
2021-04-26 15:15:41.195020,24.69281
2021-04-26 15:15:41.210640,25.52053
2021-04-26 15:15:41.226270,25.69963
2021-04-26 15:15:41.241890,25.31958
2021-04-26 15:15:41.257520,24.60553
2021-04-26 15:15:41.273150,23.86765
2021-04-26 15:15:41.288770,23.41307
2021-04-26 15:15:41.304400,23.36327
2021-04-26 15:15:41.320020,23.61739
2021-04-26 15:15:41.335650,23.90266
2021-04-26 15:15:41.351270,23.91529
2021-04-26 15:15:41.366900,23.44054
2021-04-26 15:15:41.382530,22.36809
2021-04-26 15:15:41.398150,20.70898
2021-04-26 15:15:41.413780,18.50339
2021-04-26 15:15:41.429400,15.80622
2021-04-26 15:15:41.445030,12.66728
2021-04-26 15:15:41.460650,9.152206
2021-04-26 15:15:41.476280,5.366669
2021-04-26 15:15:41.491910,1.434643
2021-04-26 15:15:41.507530,-2.516922
2021-04-26 15:15:41.523160,-6.433739
2021-04-26 15:15:41.538780,-10.33134
2021-04-26 15:15:41.554410,-14.34895
2021-04-26 15:15:41.570030,-18.69479
2021-04-26 15:15:41.585660,-23.5935
2021-04-26 15:15:41.601290,-29.14786
2021-04-26 15:15:41.616910,-35.11807
2021-04-26 15:15:41.632540,-40.84718
2021-04-26 15:15:41.648160,-45.25361
2021-04-26 15:15:41.663790,-47.14486
2021-04-26 15:15:41.679410,-45.60355
2021-04-26 15:15:41.695040,-40.39522
2021-04-26 15:15:41.710670,-32.12957
2021-04-26 15:15:41.726290,-22.11728
2021-04-26 15:15:41.741920,-11.88808
2021-04-26 15:15:41.757540,-2.717354
2021-04-26 15:15:41.773170,4.70219
2021-04-26 15:15:41.788790,10.28092
2021-04-26 15:15:41.804420,14.29196
2021-04-26 15:15:41.820050,17.12396
2021-04-26 15:15:41.835670,19.0727
2021-04-26 15:15:41.851300,20.30623
2021-04-26 15:15:41.866920,20.96627
2021-04-26 15:15:41.882550,21.19416
2021-04-26 15:15:41.898170,21.15942
2021-04-26 15:15:41.913800,20.9823
2021-04-26 15:15:41.929430,20.69007
2021-04-26 15:15:41.945050,20.19454
2021-04-26 15:15:41.960680,19.39773
2021-04-26 15:15:41.976300,18.25318
2021-04-26 15:15:41.991930,16.8203
2021-04-26 15:15:42.007550,15.28648
2021-04-26 15:15:42.023180,13.82912
2021-04-26 15:15:42.038810,12.55225
2021-04-26 15:15:42.054430,11.3831
2021-04-26 15:15:42.070060,10.13333
2021-04-26 15:15:42.085680,8.583233
2021-04-26 15:15:42.101310,6.577152
2021-04-26 15:15:42.116930,4.109066
2021-04-26 15:15:42.132560,1.291258
2021-04-26 15:15:42.148190,-1.653826
2021-04-26 15:15:42.163810,-4.525005
2021-04-26 15:15:42.195060,-9.824408
2021-04-26 15:15:42.210690,-12.54165
2021-04-26 15:15:42.226310,-15.75245
2021-04-26 15:15:42.241940,-19.78913
2021-04-26 15:15:42.257570,-24.73884
2021-04-26 15:15:42.273190,-30.26722
2021-04-26 15:15:42.288820,-35.50956
2021-04-26 15:15:42.304440,-39.21273
2021-04-26 15:15:42.320070,-40.16567
2021-04-26 15:15:42.335690,-37.64617
2021-04-26 15:15:42.351320,-31.79758
2021-04-26 15:15:42.366950,-23.56011
2021-04-26 15:15:42.382570,-14.36226
2021-04-26 15:15:42.398200,-5.572994
2021-04-26 15:15:42.413820,1.904421
2021-04-26 15:15:42.429450,7.770069
2021-04-26 15:15:42.445070,12.15687
2021-04-26 15:15:42.460700,15.30363
2021-04-26 15:15:42.476330,17.32257
2021-04-26 15:15:42.491950,18.13979
2021-04-26 15:15:42.507580,17.63918
2021-04-26 15:15:42.523200,15.86197
2021-04-26 15:15:42.538830,13.16169
2021-04-26 15:15:42.554450,10.1182
2021-04-26 15:15:42.570080,7.39922
2021-04-26 15:15:42.585710,5.478127
2021-04-26 15:15:42.601330,4.488792
2021-04-26 15:15:42.616960,4.174995
2021-04-26 15:15:42.632580,4.017845
2021-04-26 15:15:42.648210,3.497654
2021-04-26 15:15:42.663830,2.306999
2021-04-26 15:15:42.679460,0.4517059
2021-04-26 15:15:42.695090,-1.764874
2021-04-26 15:15:42.710710,-3.946484
2021-04-26 15:15:42.726340,-5.794701
2021-04-26 15:15:42.741960,-7.267622
2021-04-26 15:15:42.757590,-8.526577
2021-04-26 15:15:42.773210,-9.843552
2021-04-26 15:15:42.788840,-11.45971
2021-04-26 15:15:42.804470,-13.50109
2021-04-26 15:15:42.820090,-15.99774
2021-04-26 15:15:42.835720,-18.94423
2021-04-26 15:15:42.851340,-22.30856
2021-04-26 15:15:42.866970,-25.91602
2021-04-26 15:15:42.882590,-29.30457
2021-04-26 15:15:42.898220,-31.69292
2021-04-26 15:15:42.913850,-32.11565
2021-04-26 15:15:42.929470,-29.75833
2021-04-26 15:15:42.945100,-24.34842
2021-04-26 15:15:42.960720,-16.35083
2021-04-26 15:15:42.976350,-6.899441
2021-04-26 15:15:42.991970,2.578621
2021-04-26 15:15:43.007600,10.82379
2021-04-26 15:15:43.023230,17.08818
2021-04-26 15:15:43.038850,21.19576
2021-04-26 15:15:43.054480,23.40404
2021-04-26 15:15:43.070100,24.12474
2021-04-26 15:15:43.085730,23.72355
2021-04-26 15:15:43.101350,22.44957
2021-04-26 15:15:43.116980,20.49454
2021-04-26 15:15:43.132610,18.12855
2021-04-26 15:15:43.148230,15.74657
2021-04-26 15:15:43.163860,13.83482
2021-04-26 15:15:43.179480,12.83946
2021-04-26 15:15:43.195110,12.9687
2021-04-26 15:15:43.210730,14.0294
2021-04-26 15:15:43.226360,15.44053
2021-04-26 15:15:43.241990,16.33372
2021-04-26 15:15:43.257610,15.91554
2021-04-26 15:15:43.273240,13.73982
2021-04-26 15:15:43.288860,9.958656
2021-04-26 15:15:43.304490,5.239418
2021-04-26 15:15:43.320120,0.4375381
2021-04-26 15:15:43.335740,-3.774475
2021-04-26 15:15:43.351370,-7.2327
2021-04-26 15:15:43.366990,-10.31032
2021-04-26 15:15:43.382620,-13.68008
2021-04-26 15:15:43.398240,-17.96902
2021-04-26 15:15:43.413870,-23.50152
2021-04-26 15:15:43.429500,-30.15854
2021-04-26 15:15:43.445120,-37.41658
2021-04-26 15:15:43.460750,-44.48183
2021-04-26 15:15:43.476370,-50.38303
2021-04-26 15:15:43.492000,-54.1113
2021-04-26 15:15:43.507620,-54.76942
2021-04-26 15:15:43.523250,-51.77915
2021-04-26 15:15:43.538880,-45.09679
2021-04-26 15:15:43.554500,-35.37037
2021-04-26 15:15:43.570130,-23.77311
2021-04-26 15:15:43.585750,-11.75993
2021-04-26 15:15:43.601380,-0.6298218
2021-04-26 15:15:43.617000,8.754715
2021-04-26 15:15:43.632630,16.09759
2021-04-26 15:15:43.648260,21.47311
2021-04-26 15:15:43.663880,25.1164
2021-04-26 15:15:43.679510,27.22633
2021-04-26 15:15:43.695130,27.98376
2021-04-26 15:15:43.710760,27.65379
2021-04-26 15:15:43.726380,26.68948
2021-04-26 15:15:43.742010,25.67591
2021-04-26 15:15:43.757640,25.10902
2021-04-26 15:15:43.773260,25.14766
2021-04-26 15:15:43.788890,25.47521
2021-04-26 15:15:43.804510,25.46683
2021-04-26 15:15:43.820140,24.47101
2021-04-26 15:15:43.835760,22.17051
2021-04-26 15:15:43.851390,18.74638
2021-04-26 15:15:43.867020,14.80435
2021-04-26 15:15:43.882640,11.05285
2021-04-26 15:15:43.898270,7.946663
2021-04-26 15:15:43.913890,5.544167
2021-04-26 15:15:43.929520,3.426697
2021-04-26 15:15:43.945140,0.9817886
2021-04-26 15:15:43.960770,-2.307602
2021-04-26 15:15:43.976400,-6.654671
2021-04-26 15:15:43.992020,-11.91623
2021-04-26 15:15:44.007650,-17.71911
2021-04-26 15:15:44.023270,-23.66591
2021-04-26 15:15:44.038900,-29.47084
2021-04-26 15:15:44.054520,-34.91986
2021-04-26 15:15:44.070150,-39.77016
2021-04-26 15:15:44.085780,-43.64256
2021-04-26 15:15:44.101400,-46.06326
2021-04-26 15:15:44.117030,-46.59092
2021-04-26 15:15:44.132650,-44.95093
2021-04-26 15:15:44.148280,-41.01053
2021-04-26 15:15:44.163900,-34.57307
2021-04-26 15:15:44.179530,-25.34674
2021-04-26 15:15:44.195160,-13.01355
2021-04-26 15:15:44.210780,2.415573
2021-04-26 15:15:44.226410,20.24794
2021-04-26 15:15:44.242030,38.91571
2021-04-26 15:15:44.257660,56.26993
2021-04-26 15:15:44.273280,70.20995
2021-04-26 15:15:44.288910,79.32358
2021-04-26 15:15:44.304540,83.38409
2021-04-26 15:15:44.320160,83.24837
2021-04-26 15:15:44.335790,80.43135
2021-04-26 15:15:44.351410,76.50317
2021-04-26 15:15:44.367040,72.66675
2021-04-26 15:15:44.382660,69.65111
2021-04-26 15:15:44.398290,67.82803
2021-04-26 15:15:44.413920,67.40691
2021-04-26 15:15:44.429540,68.42596
2021-04-26 15:15:44.445170,70.56128
2021-04-26 15:15:44.460790,72.91495
2021-04-26 15:15:44.476420,74.03729
2021-04-26 15:15:44.492040,72.27762
2021-04-26 15:15:44.507670,66.38228
2021-04-26 15:15:44.523300,56.1041
2021-04-26 15:15:44.538920,42.36792
2021-04-26 15:15:44.554550,27.06702
2021-04-26 15:15:44.570170,12.38335
2021-04-26 15:15:44.585800,0.09988403
2021-04-26 15:15:44.601420,-8.883514
2021-04-26 15:15:44.617050,-14.58098
2021-04-26 15:15:44.632680,-17.78127
2021-04-26 15:15:44.648300,-19.73117
2021-04-26 15:15:44.663930,-21.74686
2021-04-26 15:15:44.679550,-24.90434
2021-04-26 15:15:44.695180,-29.66067
2021-04-26 15:15:44.710800,-35.64934
2021-04-26 15:15:44.726430,-41.67119
2021-04-26 15:15:44.742060,-46.12796
2021-04-26 15:15:44.757680,-47.58362
2021-04-26 15:15:44.773310,-45.3722
2021-04-26 15:15:44.788930,-39.82334
2021-04-26 15:15:44.804560,-32.05769
2021-04-26 15:15:44.820180,-23.536
2021-04-26 15:15:44.835810,-15.53127
2021-04-26 15:15:44.851440,-8.866241
2021-04-26 15:15:44.867060,-3.889442
2021-04-26 15:15:44.882690,-0.618042
2021-04-26 15:15:44.898310,1.059418
2021-04-26 15:15:44.913940,1.312729
2021-04-26 15:15:44.929560,0.3812943
2021-04-26 15:15:44.945190,-1.376411
2021-04-26 15:15:44.960820,-3.531113
2021-04-26 15:15:44.976440,-5.643585
2021-04-26 15:15:44.992070,-7.357704
2021-04-26 15:15:45.007690,-8.508057
2021-04-26 15:15:45.023320,-9.090767
2021-04-26 15:15:45.038940,-9.232208
2021-04-26 15:15:45.054570,-9.065712
2021-04-26 15:15:45.070200,-8.633522
2021-04-26 15:15:45.085820,-7.825115
2021-04-26 15:15:45.101450,-6.422138
2021-04-26 15:15:45.117070,-4.206013
2021-04-26 15:15:45.132700,-1.118519
2021-04-26 15:15:45.148320,2.52013
2021-04-26 15:15:45.163950,5.975956
2021-04-26 15:15:45.179580,8.238987
2021-04-26 15:15:45.195200,8.357861
2021-04-26 15:15:45.210830,5.824497
2021-04-26 15:15:45.226450,0.8636513
2021-04-26 15:15:45.242080,-5.662533
2021-04-26 15:15:45.257700,-12.58081
2021-04-26 15:15:45.273330,-18.91371
2021-04-26 15:15:45.288960,-24.24006
2021-04-26 15:15:45.304580,-28.66714
2021-04-26 15:15:45.320210,-32.4793
2021-04-26 15:15:45.335830,-35.67706
2021-04-26 15:15:45.351460,-37.75601
2021-04-26 15:15:45.367080,-37.82473
2021-04-26 15:15:45.382710,-35.10862
2021-04-26 15:15:45.398340,-29.41921
2021-04-26 15:15:45.413960,-21.38971
2021-04-26 15:15:45.429590,-12.28739
2021-04-26 15:15:45.445210,-3.521229
2021-04-26 15:15:45.460840,3.841637
2021-04-26 15:15:45.476460,9.304062
2021-04-26 15:15:45.492090,12.89533
2021-04-26 15:15:45.507720,14.82589
2021-04-26 15:15:45.523340,15.24579
2021-04-26 15:15:45.538970,14.20795
2021-04-26 15:15:45.570220,8.875898
2021-04-26 15:15:45.585840,6.153677
2021-04-26 15:15:45.601470,4.836544
2021-04-26 15:15:45.617100,5.612736
2021-04-26 15:15:45.632720,8.39167
2021-04-26 15:15:45.648350,12.35426
2021-04-26 15:15:45.663970,16.30586
2021-04-26 15:15:45.679600,19.34394
2021-04-26 15:15:45.695230,21.15224
2021-04-26 15:15:45.710850,22.03057
2021-04-26 15:15:45.726480,22.60298
2021-04-26 15:15:45.742100,23.39598
2021-04-26 15:15:45.757730,24.62122
2021-04-26 15:15:45.773350,26.17105
2021-04-26 15:15:45.788980,27.79507
2021-04-26 15:15:45.804610,29.28142
2021-04-26 15:15:45.820230,30.45252
2021-04-26 15:15:45.835860,31.14256
2021-04-26 15:15:45.851480,31.04871
2021-04-26 15:15:45.867110,29.7069
2021-04-26 15:15:45.882730,26.51385
2021-04-26 15:15:45.898360,20.9722
2021-04-26 15:15:45.913990,12.98351
2021-04-26 15:15:45.929610,3.186858
2021-04-26 15:15:45.945240,-6.936587
2021-04-26 15:15:45.960860,-15.37351
2021-04-26 15:15:45.976490,-20.25913
2021-04-26 15:15:45.992110,-20.63565
2021-04-26 15:15:46.007740,-16.91161
2021-04-26 15:15:46.023370,-10.76491
2021-04-26 15:15:46.038990,-4.375094
2021-04-26 15:15:46.054620,0.4617281
2021-04-26 15:15:46.070240,2.984222
2021-04-26 15:15:46.085870,3.505729
2021-04-26 15:15:46.101490,2.973987
2021-04-26 15:15:46.117120,2.357136
2021-04-26 15:15:46.132750,2.178856
2021-04-26 15:15:46.148370,2.439102
2021-04-26 15:15:46.164000,2.688875
2021-04-26 15:15:46.179620,2.370686
2021-04-26 15:15:46.195250,0.9649506
2021-04-26 15:15:46.210870,-1.787712
2021-04-26 15:15:46.226500,-5.756428
2021-04-26 15:15:46.242130,-10.36311
2021-04-26 15:15:46.257750,-14.68805
2021-04-26 15:15:46.273380,-17.78265
2021-04-26 15:15:46.289000,-18.9831
2021-04-26 15:15:46.304630,-18.18989
2021-04-26 15:15:46.320250,-15.86184
2021-04-26 15:15:46.335880,-12.78425
2021-04-26 15:15:46.351510,-9.767773
2021-04-26 15:15:46.367130,-7.394939
2021-04-26 15:15:46.382760,-5.981361
2021-04-26 15:15:46.398380,-5.672894
2021-04-26 15:15:46.414010,-6.559116
2021-04-26 15:15:46.429630,-8.68544
2021-04-26 15:15:46.445260,-11.93969
2021-04-26 15:15:46.460890,-16.00037
2021-04-26 15:15:46.476510,-20.35418
2021-04-26 15:15:46.492140,-24.39597
2021-04-26 15:15:46.507760,-27.50452
2021-04-26 15:15:46.523390,-29.14901
2021-04-26 15:15:46.539010,-28.8735
2021-04-26 15:15:46.554640,-26.39611
2021-04-26 15:15:46.570270,-21.73357
2021-04-26 15:15:46.585890,-15.35455
2021-04-26 15:15:46.601520,-8.239586
2021-04-26 15:15:46.617140,-1.613708
2021-04-26 15:15:46.632770,3.450577
2021-04-26 15:15:46.648390,6.510086
2021-04-26 15:15:46.664020,7.901665
2021-04-26 15:15:46.679650,8.525406
2021-04-26 15:15:46.695270,9.338394
2021-04-26 15:15:46.710900,10.79362
2021-04-26 15:15:46.726520,12.61352
2021-04-26 15:15:46.742150,14.00018
2021-04-26 15:15:46.757770,14.16736
2021-04-26 15:15:46.773400,12.82356
2021-04-26 15:15:46.789030,10.44131
2021-04-26 15:15:46.804650,8.006508
2021-04-26 15:15:46.820280,6.578415
2021-04-26 15:15:46.835900,6.789894
2021-04-26 15:15:46.851530,8.543419
2021-04-26 15:15:46.867150,11.03745
2021-04-26 15:15:46.882780,13.06311
2021-04-26 15:15:46.898410,13.44547
2021-04-26 15:15:46.914030,11.50508
2021-04-26 15:15:46.929660,7.381226
2021-04-26 15:15:46.945280,2.013725
2021-04-26 15:15:46.960910,-3.186935
2021-04-26 15:15:46.976530,-6.933708
2021-04-26 15:15:46.992160,-8.670052
2021-04-26 15:15:47.007790,-8.853943
2021-04-26 15:15:47.023410,-8.766586
2021-04-26 15:15:47.039040,-9.859131
2021-04-26 15:15:47.054660,-13.00616
2021-04-26 15:15:47.070290,-17.99484
2021-04-26 15:15:47.085910,-23.54008
2021-04-26 15:15:47.101540,-27.86446
2021-04-26 15:15:47.117170,-29.43114
2021-04-26 15:15:47.132790,-27.50954
2021-04-26 15:15:47.148420,-22.36243
2021-04-26 15:15:47.164040,-14.95868
2021-04-26 15:15:47.179670,-6.521164
2021-04-26 15:15:47.195290,1.853325
2021-04-26 15:15:47.210920,9.358879
2021-04-26 15:15:47.226550,15.51241
2021-04-26 15:15:47.242170,20.0137
2021-04-26 15:15:47.257800,22.68045
2021-04-26 15:15:47.273420,23.40852
2021-04-26 15:15:47.289050,22.27649
2021-04-26 15:15:47.304670,19.59314
2021-04-26 15:15:47.320300,15.95447
2021-04-26 15:15:47.335930,12.14874
2021-04-26 15:15:47.351550,8.981995
2021-04-26 15:15:47.367180,7.093666
2021-04-26 15:15:47.382800,6.679977
2021-04-26 15:15:47.398430,7.456421
2021-04-26 15:15:47.414050,8.652145
2021-04-26 15:15:47.429680,9.369598
2021-04-26 15:15:47.445310,8.932526
2021-04-26 15:15:47.460930,7.213623
2021-04-26 15:15:47.476560,4.673706
2021-04-26 15:15:47.492180,2.0896
2021-04-26 15:15:47.507810,0.1477356
2021-04-26 15:15:47.523430,-0.9614563
2021-04-26 15:15:47.539060,-1.608734
2021-04-26 15:15:47.554690,-2.589783
2021-04-26 15:15:47.570310,-4.685608
2021-04-26 15:15:47.585940,-8.309982
2021-04-26 15:15:47.601560,-13.36877
2021-04-26 15:15:47.617190,-19.3288
2021-04-26 15:15:47.632810,-25.4231
2021-04-26 15:15:47.648440,-30.82462
2021-04-26 15:15:47.664070,-34.80078
2021-04-26 15:15:47.679690,-36.75597
2021-04-26 15:15:47.695320,-36.30086
2021-04-26 15:15:47.710940,-33.30498
2021-04-26 15:15:47.726570,-27.9657
2021-04-26 15:15:47.742190,-20.82437
2021-04-26 15:15:47.757820,-12.73726
2021-04-26 15:15:47.773450,-4.734192
2021-04-26 15:15:47.789070,2.203186
2021-04-26 15:15:47.804700,7.332932
2021-04-26 15:15:47.820320,10.34221
2021-04-26 15:15:47.835950,11.38791
2021-04-26 15:15:47.851570,10.99974
2021-04-26 15:15:47.867200,9.889114
2021-04-26 15:15:47.882830,8.685303
2021-04-26 15:15:47.898450,7.825699
2021-04-26 15:15:47.914080,7.437576
2021-04-26 15:15:47.929700,7.455627
2021-04-26 15:15:47.945330,7.700592
2021-04-26 15:15:47.960950,7.944595
2021-04-26 15:15:47.976580,7.95755
2021-04-26 15:15:47.992210,7.475708
2021-04-26 15:15:48.007830,6.303955
2021-04-26 15:15:48.023460,4.4142
2021-04-26 15:15:48.039080,2.108063
2021-04-26 15:15:48.054710,-0.06033325
2021-04-26 15:15:48.070330,-1.494034
2021-04-26 15:15:48.085960,-1.891876
2021-04-26 15:15:48.101590,-1.526749
2021-04-26 15:15:48.117210,-1.21994
2021-04-26 15:15:48.132840,-2.087921
2021-04-26 15:15:48.148460,-5.050049
2021-04-26 15:15:48.164090,-10.42686
2021-04-26 15:15:48.179720,-17.73772
2021-04-26 15:15:48.195340,-25.77162
2021-04-26 15:15:48.210970,-32.91066
2021-04-26 15:15:48.226590,-37.5737
2021-04-26 15:15:48.242220,-38.66341
2021-04-26 15:15:48.257840,-35.87479
2021-04-26 15:15:48.273470,-29.7711
2021-04-26 15:15:48.289100,-21.61191
2021-04-26 15:15:48.304720,-12.90796
2021-04-26 15:15:48.320350,-4.969055
2021-04-26 15:15:48.335970,1.429184
2021-04-26 15:15:48.351600,6.16452
2021-04-26 15:15:48.367220,9.554596
2021-04-26 15:15:48.382850,12.02286
2021-04-26 15:15:48.398480,13.85651
2021-04-26 15:15:48.414100,15.15508
2021-04-26 15:15:48.429730,15.94032
2021-04-26 15:15:48.445350,16.32933
2021-04-26 15:15:48.460980,16.61935
2021-04-26 15:15:48.476600,17.12923
2021-04-26 15:15:48.492230,18.02022
2021-04-26 15:15:48.507860,19.1524
2021-04-26 15:15:48.523480,20.11707
2021-04-26 15:15:48.539110,20.44044
2021-04-26 15:15:48.554730,19.83536
2021-04-26 15:15:48.570360,18.32909
2021-04-26 15:15:48.585980,16.20676
2021-04-26 15:15:48.601610,13.87354
2021-04-26 15:15:48.617240,11.65933
2021-04-26 15:15:48.632860,9.693954
2021-04-26 15:15:48.648490,7.974228
2021-04-26 15:15:48.664110,6.442337
2021-04-26 15:15:48.679740,5.024765
2021-04-26 15:15:48.695360,3.658768
2021-04-26 15:15:48.710990,2.182648
2021-04-26 15:15:48.726620,0.2742157
2021-04-26 15:15:48.742240,-2.493088
2021-04-26 15:15:48.757870,-6.46019
2021-04-26 15:15:48.773490,-11.62555
2021-04-26 15:15:48.789120,-17.4736
2021-04-26 15:15:48.804740,-23.01433
2021-04-26 15:15:48.820370,-27.1174
2021-04-26 15:15:48.836000,-28.86681
2021-04-26 15:15:48.851620,-27.89627
2021-04-26 15:15:48.867250,-24.50876
2021-04-26 15:15:48.882870,-19.47292
2021-04-26 15:15:48.898500,-13.71628
2021-04-26 15:15:48.914120,-8.01413
2021-04-26 15:15:48.929750,-2.866119
2021-04-26 15:15:48.945380,1.483246
2021-04-26 15:15:48.961000,4.901505
2021-04-26 15:15:48.976630,7.26651
2021-04-26 15:15:48.992250,8.452255
2021-04-26 15:15:49.007880,8.445587
2021-04-26 15:15:49.023500,7.458954
2021-04-26 15:15:49.039130,5.900009
2021-04-26 15:15:49.054760,4.290482
2021-04-26 15:15:49.070380,3.070892
2021-04-26 15:15:49.086010,2.455841
2021-04-26 15:15:49.101630,2.404144
2021-04-26 15:15:49.117260,2.661087
2021-04-26 15:15:49.132880,2.883179
2021-04-26 15:15:49.148510,2.724716
2021-04-26 15:15:49.164140,1.966202
2021-04-26 15:15:49.179760,0.5090485
2021-04-26 15:15:49.195390,-1.585464
2021-04-26 15:15:49.211010,-4.103912
2021-04-26 15:15:49.226640,-6.710098
2021-04-26 15:15:49.242260,-9.048294
2021-04-26 15:15:49.257890,-10.8394
2021-04-26 15:15:49.273520,-11.99776
2021-04-26 15:15:49.289140,-12.67163
2021-04-26 15:15:49.304770,-13.2462
2021-04-26 15:15:49.320390,-14.28329
2021-04-26 15:15:49.336020,-16.33954
2021-04-26 15:15:49.351640,-19.73978
2021-04-26 15:15:49.367270,-24.34911
2021-04-26 15:15:49.382900,-29.44551
2021-04-26 15:15:49.398520,-33.83665
2021-04-26 15:15:49.414150,-36.17438
2021-04-26 15:15:49.429770,-35.45218
2021-04-26 15:15:49.445400,-31.35887
2021-04-26 15:15:49.461020,-24.47163
2021-04-26 15:15:49.476650,-15.96736
2021-04-26 15:15:49.492280,-7.229034
2021-04-26 15:15:49.507900,0.6236115
2021-04-26 15:15:49.523530,6.981979
2021-04-26 15:15:49.539150,11.72443
2021-04-26 15:15:49.554780,15.01306
2021-04-26 15:15:49.570400,17.00287
2021-04-26 15:15:49.586030,17.75368
2021-04-26 15:15:49.601660,17.28479
2021-04-26 15:15:49.617280,15.73386
2021-04-26 15:15:49.632910,13.48215
2021-04-26 15:15:49.648530,11.13367
2021-04-26 15:15:49.664160,9.36496
2021-04-26 15:15:49.679780,8.652908
2021-04-26 15:15:49.695410,9.090958
2021-04-26 15:15:49.711040,10.29665
2021-04-26 15:15:49.726660,11.61223
2021-04-26 15:15:49.742290,12.36372
2021-04-26 15:15:49.757910,12.10271
2021-04-26 15:15:49.773540,10.79161
2021-04-26 15:15:49.789160,8.738007
2021-04-26 15:15:49.804790,6.439728
2021-04-26 15:15:49.820420,4.31427
2021-04-26 15:15:49.836040,2.547821
2021-04-26 15:15:49.851670,1.02063
2021-04-26 15:15:49.867290,-0.622467
2021-04-26 15:15:49.882920,-2.827271
2021-04-26 15:15:49.898540,-5.998581
2021-04-26 15:15:49.914170,-10.34573
2021-04-26 15:15:49.929800,-15.7375
2021-04-26 15:15:49.945420,-21.60397
2021-04-26 15:15:49.961050,-27.02467
2021-04-26 15:15:49.976670,-30.89125
2021-04-26 15:15:50.007920,-30.5112
2021-04-26 15:15:50.023550,-25.72025
2021-04-26 15:15:50.039180,-18.47418
2021-04-26 15:15:50.054800,-9.775833
2021-04-26 15:15:50.070430,-0.8097839
2021-04-26 15:15:50.086050,7.35849
2021-04-26 15:15:50.101680,13.97513
2021-04-26 15:15:50.117300,18.73994
2021-04-26 15:15:50.132930,21.78433
2021-04-26 15:15:50.148560,23.55177
2021-04-26 15:15:50.164180,24.62923
2021-04-26 15:15:50.179810,25.54117
2021-04-26 15:15:50.195430,26.58264
2021-04-26 15:15:50.211060,27.79366
2021-04-26 15:15:50.226680,29.00682
2021-04-26 15:15:50.242310,30.0209
2021-04-26 15:15:50.257940,30.72009
2021-04-26 15:15:50.273560,31.16223
2021-04-26 15:15:50.289190,31.46411
2021-04-26 15:15:50.304810,31.71741
2021-04-26 15:15:50.320440,31.85625
2021-04-26 15:15:50.336070,31.69893
2021-04-26 15:15:50.351690,31.04597
2021-04-26 15:15:50.367320,29.76056
2021-04-26 15:15:50.382940,27.81677
2021-04-26 15:15:50.398570,25.23167
2021-04-26 15:15:50.414190,21.96826
2021-04-26 15:15:50.429820,17.82916
2021-04-26 15:15:50.445450,12.50046
2021-04-26 15:15:50.461070,5.68277
2021-04-26 15:15:50.476700,-2.727295
2021-04-26 15:15:50.492320,-12.47443
2021-04-26 15:15:50.507950,-22.95537
2021-04-26 15:15:50.523570,-33.28232
2021-04-26 15:15:50.539200,-42.46182
2021-04-26 15:15:50.554830,-49.54068
2021-04-26 15:15:50.570450,-53.7115
2021-04-26 15:15:50.586080,-54.48746
2021-04-26 15:15:50.601700,-51.80943
2021-04-26 15:15:50.617330,-46.17633
2021-04-26 15:15:50.632950,-38.59854
2021-04-26 15:15:50.648580,-30.38774
2021-04-26 15:15:50.664210,-22.80467
2021-04-26 15:15:50.679830,-16.68256
2021-04-26 15:15:50.695460,-12.28961
2021-04-26 15:15:50.711080,-9.361694
2021-04-26 15:15:50.726710,-7.417114
2021-04-26 15:15:50.742330,-5.96875
2021-04-26 15:15:50.757960,-4.799561
2021-04-26 15:15:50.773590,-3.876389
2021-04-26 15:15:50.789210,-3.256927
2021-04-26 15:15:50.804840,-2.874466
2021-04-26 15:15:50.820460,-2.512482
2021-04-26 15:15:50.836090,-1.914474
2021-04-26 15:15:50.851710,-0.9723358
2021-04-26 15:15:50.867340,0.1043396
2021-04-26 15:15:50.882970,0.8596191
2021-04-26 15:15:50.898590,0.7625275
2021-04-26 15:15:50.914220,-0.45401
2021-04-26 15:15:50.929840,-2.625595
2021-04-26 15:15:50.945470,-5.182358
2021-04-26 15:15:50.961090,-7.410233
2021-04-26 15:15:50.976720,-8.824051
2021-04-26 15:15:50.992350,-9.34317
2021-04-26 15:15:51.007970,-9.363083
2021-04-26 15:15:51.023600,-9.5289
2021-04-26 15:15:51.039220,-10.53101
2021-04-26 15:15:51.054850,-12.89825
2021-04-26 15:15:51.070470,-16.88503
2021-04-26 15:15:51.086100,-22.37584
2021-04-26 15:15:51.101730,-28.77968
2021-04-26 15:15:51.117350,-34.996
2021-04-26 15:15:51.132980,-39.548
2021-04-26 15:15:51.148600,-41.00919
2021-04-26 15:15:51.164230,-38.53142
2021-04-26 15:15:51.179850,-32.21793
2021-04-26 15:15:51.195480,-23.17348
2021-04-26 15:15:51.211110,-13.08885
2021-04-26 15:15:51.226730,-3.644737
2021-04-26 15:15:51.242360,4.035927
2021-04-26 15:15:51.257980,9.53289
2021-04-26 15:15:51.273610,13.01852
2021-04-26 15:15:51.289230,14.8222
2021-04-26 15:15:51.304860,15.23535
2021-04-26 15:15:51.320490,14.46445
2021-04-26 15:15:51.336110,12.8227
2021-04-26 15:15:51.351740,10.89751
2021-04-26 15:15:51.367360,9.536697
2021-04-26 15:15:51.382990,9.618698
2021-04-26 15:15:51.398610,11.6469
2021-04-26 15:15:51.414240,15.42558
2021-04-26 15:15:51.429870,20.03616
2021-04-26 15:15:51.445490,24.12705
2021-04-26 15:15:51.461120,26.44738
2021-04-26 15:15:51.476740,26.35537
2021-04-26 15:15:51.492370,24.03075
2021-04-26 15:15:51.507990,20.33937
2021-04-26 15:15:51.523620,16.35503
2021-04-26 15:15:51.539250,12.8525
2021-04-26 15:15:51.554870,10.05034
2021-04-26 15:15:51.570500,7.629887
2021-04-26 15:15:51.586120,5.040028
2021-04-26 15:15:51.601750,1.849754
2021-04-26 15:15:51.617370,-2.147354
2021-04-26 15:15:51.633000,-6.923141
2021-04-26 15:15:51.648630,-12.38046
2021-04-26 15:15:51.664250,-18.38352
2021-04-26 15:15:51.679880,-24.61961
2021-04-26 15:15:51.695500,-30.47758
2021-04-26 15:15:51.711130,-35.02377
2021-04-26 15:15:51.726750,-37.28316
2021-04-26 15:15:51.742380,-36.63219
2021-04-26 15:15:51.758010,-33.15446
2021-04-26 15:15:51.773630,-27.58458
2021-04-26 15:15:51.789260,-21.0355
2021-04-26 15:15:51.804880,-14.4365
2021-04-26 15:15:51.820510,-8.219757
2021-04-26 15:15:51.836130,-2.191969
2021-04-26 15:15:51.851760,4.110254
2021-04-26 15:15:51.867390,10.98261
2021-04-26 15:15:51.883010,18.27211
2021-04-26 15:15:51.898640,25.2731
2021-04-26 15:15:51.914260,30.92415
2021-04-26 15:15:51.929890,34.16078
2021-04-26 15:15:51.945510,34.32643
2021-04-26 15:15:51.961140,31.54202
2021-04-26 15:15:51.976770,26.82158
2021-04-26 15:15:51.992390,21.89865
2021-04-26 15:15:52.008020,18.69865
2021-04-26 15:15:52.023640,18.64491
2021-04-26 15:15:52.039270,22.00422
2021-04-26 15:15:52.054890,27.63143
2021-04-26 15:15:52.070520,33.35068
2021-04-26 15:15:52.086150,36.85693
2021-04-26 15:15:52.101770,36.717
2021-04-26 15:15:52.117400,32.96001
2021-04-26 15:15:52.133020,26.98339
2021-04-26 15:15:52.148650,20.74954
2021-04-26 15:15:52.164270,15.80618
2021-04-26 15:15:52.179900,12.61436
2021-04-26 15:15:52.195530,10.51336
2021-04-26 15:15:52.211150,8.279999
2021-04-26 15:15:52.226780,4.844336
2021-04-26 15:15:52.242400,-0.2428465
2021-04-26 15:15:52.258030,-6.784587
2021-04-26 15:15:52.289280,-21.8563
2021-04-26 15:15:52.304910,-29.06397
2021-04-26 15:15:52.320530,-35.13158
2021-04-26 15:15:52.336160,-39.17103
2021-04-26 15:15:52.351780,-40.30027
2021-04-26 15:15:52.367410,-37.93477
2021-04-26 15:15:52.383030,-32.11441
2021-04-26 15:15:52.398660,-23.63934
2021-04-26 15:15:52.414290,-13.82635
2021-04-26 15:15:52.429910,-4.168461
2021-04-26 15:15:52.445540,4.152697
2021-04-26 15:15:52.461160,10.50455
2021-04-26 15:15:52.476790,14.81998
2021-04-26 15:15:52.492410,17.43587
2021-04-26 15:15:52.508040,18.86686
2021-04-26 15:15:52.523670,19.58284
2021-04-26 15:15:52.539290,19.94566
2021-04-26 15:15:52.554920,20.16312
2021-04-26 15:15:52.570540,20.31624
2021-04-26 15:15:52.586170,20.41531
2021-04-26 15:15:52.601790,20.43179
2021-04-26 15:15:52.617420,20.37707
2021-04-26 15:15:52.633050,20.28436
2021-04-26 15:15:52.648670,20.15976
2021-04-26 15:15:52.664300,19.91484
2021-04-26 15:15:52.679920,19.39674
2021-04-26 15:15:52.695550,18.39354
2021-04-26 15:15:52.711170,16.70008
2021-04-26 15:15:52.726800,14.2937
2021-04-26 15:15:52.742430,11.36425
2021-04-26 15:15:52.758050,8.268173
2021-04-26 15:15:52.773680,5.389542
2021-04-26 15:15:52.789300,2.930744
2021-04-26 15:15:52.804930,0.7822838
2021-04-26 15:15:52.820550,-1.406376
2021-04-26 15:15:52.836180,-3.986115
2021-04-26 15:15:52.851810,-7.120819
2021-04-26 15:15:52.867430,-10.65503
2021-04-26 15:15:52.883060,-14.31614
2021-04-26 15:15:52.898680,-17.95706
2021-04-26 15:15:52.914310,-21.78092
2021-04-26 15:15:52.929930,-26.2274
2021-04-26 15:15:52.945560,-31.54327
2021-04-26 15:15:52.961190,-37.40287
2021-04-26 15:15:52.976810,-42.72836
2021-04-26 15:15:52.992440,-46.00278
2021-04-26 15:15:53.008060,-45.88091
2021-04-26 15:15:53.023690,-41.88065
2021-04-26 15:15:53.039320,-34.53683
2021-04-26 15:15:53.054940,-25.10838
2021-04-26 15:15:53.070570,-14.91893
2021-04-26 15:15:53.086190,-4.81638
2021-04-26 15:15:53.101820,4.95887
2021-04-26 15:15:53.117440,14.42681
2021-04-26 15:15:53.133070,23.4419
2021-04-26 15:15:53.148700,31.40955
2021-04-26 15:15:53.164320,37.44744
2021-04-26 15:15:53.179950,40.88699
2021-04-26 15:15:53.195570,41.66537
2021-04-26 15:15:53.211200,40.34305
2021-04-26 15:15:53.226820,37.82417
2021-04-26 15:15:53.242450,34.91127
2021-04-26 15:15:53.258080,32.01092
2021-04-26 15:15:53.273700,29.19122
2021-04-26 15:15:53.289330,26.43263
2021-04-26 15:15:53.304950,23.85375
2021-04-26 15:15:53.320580,21.76211
2021-04-26 15:15:53.336200,20.42953
2021-04-26 15:15:53.351830,19.87463
2021-04-26 15:15:53.367460,19.72661
2021-04-26 15:15:53.383080,19.42577
2021-04-26 15:15:53.398710,18.41891
2021-04-26 15:15:53.414330,16.43866
2021-04-26 15:15:53.429960,13.55135
2021-04-26 15:15:53.445580,10.05193
2021-04-26 15:15:53.461210,6.33728
2021-04-26 15:15:53.476840,2.645866
2021-04-26 15:15:53.492460,-0.9152985
2021-04-26 15:15:53.508090,-4.396721
2021-04-26 15:15:53.523710,-7.905045
2021-04-26 15:15:53.539340,-11.6255
2021-04-26 15:15:53.554960,-15.77429
2021-04-26 15:15:53.570590,-20.56136
2021-04-26 15:15:53.586220,-26.06193
2021-04-26 15:15:53.601840,-32.04169
2021-04-26 15:15:53.617470,-37.85312
2021-04-26 15:15:53.633090,-42.4855
2021-04-26 15:15:53.648720,-44.82346
2021-04-26 15:15:53.664340,-44.03742
2021-04-26 15:15:53.679970,-39.89223
2021-04-26 15:15:53.695600,-32.80825
2021-04-26 15:15:53.711220,-23.76158
2021-04-26 15:15:53.726850,-13.90657
2021-04-26 15:15:53.742470,-4.284195
2021-04-26 15:15:53.758100,4.354965
2021-04-26 15:15:53.773720,11.61375
2021-04-26 15:15:53.789350,17.32145
2021-04-26 15:15:53.804980,21.4272
2021-04-26 15:15:53.820600,23.94558
2021-04-26 15:15:53.836230,24.98985
2021-04-26 15:15:53.851850,24.81031
2021-04-26 15:15:53.867480,23.81579
2021-04-26 15:15:53.883100,22.53643
2021-04-26 15:15:53.898730,21.45213
2021-04-26 15:15:53.914360,20.85159
2021-04-26 15:15:53.929980,20.71951
2021-04-26 15:15:53.945610,20.79149
2021-04-26 15:15:53.961230,20.7161
2021-04-26 15:15:53.976860,20.24549
2021-04-26 15:15:53.992480,19.39925
2021-04-26 15:15:54.008110,18.40147
2021-04-26 15:15:54.023740,17.54137
2021-04-26 15:15:54.039360,16.9354
2021-04-26 15:15:54.054990,16.40701
2021-04-26 15:15:54.070610,15.5246
2021-04-26 15:15:54.086240,13.84832
2021-04-26 15:15:54.101860,11.14951
2021-04-26 15:15:54.117490,7.583725
2021-04-26 15:15:54.133120,3.610023
2021-04-26 15:15:54.148740,-0.177887
2021-04-26 15:15:54.164370,-3.363861
2021-04-26 15:15:54.179990,-5.90802
2021-04-26 15:15:54.195620,-8.1763
2021-04-26 15:15:54.211240,-10.86737
2021-04-26 15:15:54.226870,-14.64911
2021-04-26 15:15:54.242500,-19.84379
2021-04-26 15:15:54.258120,-26.14566
2021-04-26 15:15:54.273750,-32.58884
2021-04-26 15:15:54.289370,-37.76337
2021-04-26 15:15:54.305000,-40.25673
2021-04-26 15:15:54.320620,-39.12041
2021-04-26 15:15:54.336250,-34.17118
2021-04-26 15:15:54.351880,-26.02432
2021-04-26 15:15:54.367500,-15.88968
2021-04-26 15:15:54.383130,-5.204399
2021-04-26 15:15:54.398750,4.741646
2021-04-26 15:15:54.414380,12.99577
2021-04-26 15:15:54.430000,19.02573
2021-04-26 15:15:54.461260,24.15806
2021-04-26 15:15:54.476880,23.76067
2021-04-26 15:15:54.492510,21.98621
2021-04-26 15:15:54.508130,19.34273
2021-04-26 15:15:54.523760,16.34473
2021-04-26 15:15:54.539380,13.44953
2021-04-26 15:15:54.555010,11.01485
2021-04-26 15:15:54.570640,9.289345
2021-04-26 15:15:54.586260,8.406502
2021-04-26 15:15:54.601890,8.328827
2021-04-26 15:15:54.617510,8.842865
2021-04-26 15:15:54.633140,9.629463
2021-04-26 15:15:54.648760,10.29463
2021-04-26 15:15:54.664390,10.50215
2021-04-26 15:15:54.680020,10.04855
2021-04-26 15:15:54.695640,8.907463
2021-04-26 15:15:54.711270,7.183548
2021-04-26 15:15:54.726890,5.069931
2021-04-26 15:15:54.742520,2.776466
2021-04-26 15:15:54.758140,0.4599457
2021-04-26 15:15:54.773770,-1.779175
2021-04-26 15:15:54.789400,-3.931343
2021-04-26 15:15:54.805020,-6.048721
2021-04-26 15:15:54.820650,-8.238914
2021-04-26 15:15:54.836270,-10.70331
2021-04-26 15:15:54.851900,-13.71526
2021-04-26 15:15:54.867520,-17.56089
2021-04-26 15:15:54.883150,-22.34842
2021-04-26 15:15:54.898780,-27.80465
2021-04-26 15:15:54.914400,-33.15202
2021-04-26 15:15:54.930030,-37.26567
2021-04-26 15:15:54.945650,-38.9714
2021-04-26 15:15:54.961280,-37.47429
2021-04-26 15:15:54.976900,-32.68001
2021-04-26 15:15:54.992530,-25.16715
2021-04-26 15:15:55.008160,-15.96294
2021-04-26 15:15:55.023780,-6.180656
2021-04-26 15:15:55.039410,3.28537
2021-04-26 15:15:55.055030,11.85043
2021-04-26 15:15:55.070660,19.10608
2021-04-26 15:15:55.086280,24.76097
2021-04-26 15:15:55.101910,28.57491
2021-04-26 15:15:55.117540,30.39671
2021-04-26 15:15:55.133160,30.33912
2021-04-26 15:15:55.148790,28.83233
2021-04-26 15:15:55.164410,26.61425
2021-04-26 15:15:55.180040,24.5135
2021-04-26 15:15:55.195670,23.25275
2021-04-26 15:15:55.211290,23.1685
2021-04-26 15:15:55.226920,24.11501
2021-04-26 15:15:55.242540,25.54782
2021-04-26 15:15:55.258170,26.70589
2021-04-26 15:15:55.273790,26.95522
2021-04-26 15:15:55.289420,25.96867
2021-04-26 15:15:55.305050,23.80588
2021-04-26 15:15:55.320670,20.83015
2021-04-26 15:15:55.336300,17.46923
2021-04-26 15:15:55.351920,14.06938
2021-04-26 15:15:55.367550,10.80463
2021-04-26 15:15:55.383170,7.6698
2021-04-26 15:15:55.398800,4.551407
2021-04-26 15:15:55.414430,1.30098
2021-04-26 15:15:55.430050,-2.234856
2021-04-26 15:15:55.445680,-6.124763
2021-04-26 15:15:55.461300,-10.30598
2021-04-26 15:15:55.476930,-14.58653
2021-04-26 15:15:55.492550,-18.74155
2021-04-26 15:15:55.508180,-22.66246
2021-04-26 15:15:55.523810,-26.52851
2021-04-26 15:15:55.539430,-30.74753
2021-04-26 15:15:55.555060,-35.69472
2021-04-26 15:15:55.570680,-41.34481
2021-04-26 15:15:55.586310,-47.04266
2021-04-26 15:15:55.601930,-51.52932
2021-04-26 15:15:55.617560,-53.37988
2021-04-26 15:15:55.633190,-51.54562
2021-04-26 15:15:55.648810,-45.80209
2021-04-26 15:15:55.664440,-36.81577
2021-04-26 15:15:55.680060,-25.89989
2021-04-26 15:15:55.695690,-14.53437
2021-04-26 15:15:55.711310,-3.938499
2021-04-26 15:15:55.726940,5.133202
2021-04-26 15:15:55.742570,12.36827
2021-04-26 15:15:55.758190,17.73315
2021-04-26 15:15:55.773820,21.33007
2021-04-26 15:15:55.789440,23.341
2021-04-26 15:15:55.805070,24.02187
2021-04-26 15:15:55.820690,23.73296
2021-04-26 15:15:55.836320,22.93816
2021-04-26 15:15:55.851950,22.07521
2021-04-26 15:15:55.867570,21.46567
2021-04-26 15:15:55.883200,21.24316
2021-04-26 15:15:55.898820,21.36162
2021-04-26 15:15:55.914450,21.6269
2021-04-26 15:15:55.930070,21.82187
2021-04-26 15:15:55.945700,21.78163
2021-04-26 15:15:55.961330,21.44736
2021-04-26 15:15:55.976950,20.88188
2021-04-26 15:15:55.992580,20.18801
2021-04-26 15:15:56.008200,19.44409
2021-04-26 15:15:56.023830,18.59099
2021-04-26 15:15:56.039450,17.45494
2021-04-26 15:15:56.055080,15.79177
2021-04-26 15:15:56.070710,13.40049
2021-04-26 15:15:56.086330,10.2187
2021-04-26 15:15:56.101960,6.369408
2021-04-26 15:15:56.117580,2.139179
2021-04-26 15:15:56.133210,-2.154224
2021-04-26 15:15:56.148830,-6.254025
2021-04-26 15:15:56.164460,-10.06133
2021-04-26 15:15:56.180090,-13.67095
2021-04-26 15:15:56.195710,-17.36154
2021-04-26 15:15:56.211340,-21.47295
2021-04-26 15:15:56.226960,-26.22878
2021-04-26 15:15:56.242590,-31.49429
2021-04-26 15:15:56.258210,-36.6943
2021-04-26 15:15:56.273840,-40.87688
2021-04-26 15:15:56.289470,-42.95207
2021-04-26 15:15:56.305090,-42.10454
2021-04-26 15:15:56.320720,-38.11004
2021-04-26 15:15:56.336340,-31.38975
2021-04-26 15:15:56.351970,-22.83231
2021-04-26 15:15:56.367590,-13.46562
2021-04-26 15:15:56.383220,-4.154598
2021-04-26 15:15:56.398850,4.515465
2021-04-26 15:15:56.414470,12.15343
2021-04-26 15:15:56.430100,18.43339
2021-04-26 15:15:56.445720,23.03151
2021-04-26 15:15:56.461350,25.69238
2021-04-26 15:15:56.476970,26.44091
2021-04-26 15:15:56.492600,25.6624
2021-04-26 15:15:56.508230,24.07333
2021-04-26 15:15:56.523850,22.47483
2021-04-26 15:15:56.539480,21.46676
2021-04-26 15:15:56.555100,21.2843
2021-04-26 15:15:56.570730,21.7922
2021-04-26 15:15:56.586350,22.60233
2021-04-26 15:15:56.601980,23.27559
2021-04-26 15:15:56.617610,23.55711
2021-04-26 15:15:56.633230,23.44015
2021-04-26 15:15:56.648860,23.14868
2021-04-26 15:15:56.664480,22.98464
2021-04-26 15:15:56.680110,23.17164
2021-04-26 15:15:56.695730,23.72535
2021-04-26 15:15:56.711360,24.44952
2021-04-26 15:15:56.726990,24.9879
2021-04-26 15:15:56.742610,24.93118
2021-04-26 15:15:56.758240,23.95872
2021-04-26 15:15:56.773860,21.86698
2021-04-26 15:15:56.789490,18.57941
2021-04-26 15:15:56.805110,14.16454
2021-04-26 15:15:56.820740,8.789944
2021-04-26 15:15:56.836370,2.649475
2021-04-26 15:15:56.851990,-4.06179
2021-04-26 15:15:56.867620,-11.24576
2021-04-26 15:15:56.883240,-18.87173
2021-04-26 15:15:56.898870,-26.8499
2021-04-26 15:15:56.914490,-34.85328
2021-04-26 15:15:56.930120,-42.18966
2021-04-26 15:15:56.945750,-47.83193
2021-04-26 15:15:56.961370,-50.68516
2021-04-26 15:15:56.977000,-50.02792
2021-04-26 15:15:56.992620,-45.82927
2021-04-26 15:15:57.008250,-38.85954
2021-04-26 15:15:57.023870,-30.39556
2021-04-26 15:15:57.039500,-21.78117
2021-04-26 15:15:57.055130,-13.98345
2021-04-26 15:15:57.070750,-7.398538
2021-04-26 15:15:57.086380,-1.94553
2021-04-26 15:15:57.102000,2.613922
2021-04-26 15:15:57.117630,6.387627
2021-04-26 15:15:57.133250,9.234547
2021-04-26 15:15:57.148880,10.83771
2021-04-26 15:15:57.164510,10.98324
2021-04-26 15:15:57.180130,9.738255
2021-04-26 15:15:57.195760,7.593861
2021-04-26 15:15:57.211380,5.307243
2021-04-26 15:15:57.227010,3.64592
2021-04-26 15:15:57.242630,3.069514
2021-04-26 15:15:57.258260,3.540765
2021-04-26 15:15:57.273890,4.579364
2021-04-26 15:15:57.289510,5.443379
2021-04-26 15:15:57.305140,5.481274
2021-04-26 15:15:57.320760,4.38931
2021-04-26 15:15:57.336390,2.271122
2021-04-26 15:15:57.352010,-0.4649649
2021-04-26 15:15:57.367640,-3.359139
2021-04-26 15:15:57.383270,-6.137249
2021-04-26 15:15:57.398890,-8.812525
2021-04-26 15:15:57.414520,-11.57126
2021-04-26 15:15:57.430140,-14.64896
2021-04-26 15:15:57.445770,-18.14185
2021-04-26 15:15:57.461400,-22.01813
2021-04-26 15:15:57.477020,-26.17942
2021-04-26 15:15:57.492650,-30.59545
2021-04-26 15:15:57.508270,-35.25645
2021-04-26 15:15:57.523900,-40.01747
2021-04-26 15:15:57.539520,-44.43856
2021-04-26 15:15:57.555150,-47.702
2021-04-26 15:15:57.570780,-48.80399
2021-04-26 15:15:57.586400,-46.93809
2021-04-26 15:15:57.602030,-41.80421
2021-04-26 15:15:57.617650,-33.81121
2021-04-26 15:15:57.633280,-23.92138
2021-04-26 15:15:57.648900,-13.39057
2021-04-26 15:15:57.664530,-3.39834
2021-04-26 15:15:57.680160,5.118612
2021-04-26 15:15:57.695780,11.616
2021-04-26 15:15:57.711410,15.93565
2021-04-26 15:15:57.727030,18.24391
2021-04-26 15:15:57.742660,18.91212
2021-04-26 15:15:57.758280,18.41194
2021-04-26 15:15:57.773910,17.16611
2021-04-26 15:15:57.789540,15.50049
2021-04-26 15:15:57.805160,13.6637
2021-04-26 15:15:57.820790,11.86755
2021-04-26 15:15:57.836410,10.30754
2021-04-26 15:15:57.852040,9.127068
2021-04-26 15:15:57.867660,8.288853
2021-04-26 15:15:57.883290,7.59119
2021-04-26 15:15:57.898920,6.769188
2021-04-26 15:15:57.914540,5.770588
2021-04-26 15:15:57.930170,4.856785
2021-04-26 15:15:57.945790,4.524807
2021-04-26 15:15:57.961420,5.138718
2021-04-26 15:15:57.977040,6.516422
2021-04-26 15:15:57.992670,7.852306
2021-04-26 15:15:58.008300,7.968399
2021-04-26 15:15:58.023920,5.90715
2021-04-26 15:15:58.039550,1.421284
2021-04-26 15:15:58.055170,-4.927528
2021-04-26 15:15:58.070800,-12.15552
2021-04-26 15:15:58.086420,-19.45617
2021-04-26 15:15:58.102050,-26.54218
2021-04-26 15:15:58.117680,-33.47388
2021-04-26 15:15:58.133300,-40.15307
2021-04-26 15:15:58.148930,-45.88035
2021-04-26 15:15:58.164550,-49.37015
2021-04-26 15:15:58.180180,-49.29995
2021-04-26 15:15:58.195800,-45.01312
2021-04-26 15:15:58.211430,-36.98679
2021-04-26 15:15:58.227060,-26.59293
2021-04-26 15:15:58.242680,-15.52756
2021-04-26 15:15:58.258310,-5.027092
2021-04-26 15:15:58.273930,4.454453
2021-04-26 15:15:58.289560,12.99061
2021-04-26 15:15:58.305180,20.75511
2021-04-26 15:15:58.320810,27.54794
2021-04-26 15:15:58.336440,32.80389
2021-04-26 15:15:58.352060,35.89392
2021-04-26 15:15:58.367690,36.50992
2021-04-26 15:15:58.383310,34.88753
2021-04-26 15:15:58.398940,31.69506
2021-04-26 15:15:58.414560,27.83862
2021-04-26 15:15:58.430190,24.14724
2021-04-26 15:15:58.445820,21.23962
2021-04-26 15:15:58.461440,19.44604
2021-04-26 15:15:58.477070,18.73978
2021-04-26 15:15:58.492690,18.8294
2021-04-26 15:15:58.508320,19.19546
2021-04-26 15:15:58.523940,19.33753
2021-04-26 15:15:58.539570,18.92966
2021-04-26 15:15:58.555200,17.91114
2021-04-26 15:15:58.570820,16.42987
2021-04-26 15:15:58.586450,14.66115
2021-04-26 15:15:58.602070,12.60387
2021-04-26 15:15:58.617700,10.05019
2021-04-26 15:15:58.633320,6.750359
2021-04-26 15:15:58.648950,2.63105
2021-04-26 15:15:58.664580,-2.062401
2021-04-26 15:15:58.680200,-6.917282
2021-04-26 15:15:58.695830,-11.63203
2021-04-26 15:15:58.711450,-16.26902
2021-04-26 15:15:58.727080,-21.19759
2021-04-26 15:15:58.742700,-26.75117
2021-04-26 15:15:58.758330,-32.73589
2021-04-26 15:15:58.773960,-38.14319
2021-04-26 15:15:58.789580,-41.40672
2021-04-26 15:15:58.805210,-40.98716
2021-04-26 15:15:58.820830,-36.1447
2021-04-26 15:15:58.836460,-27.34389
2021-04-26 15:15:58.852080,-16.18057
2021-04-26 15:15:58.867710,-4.744492
2021-04-26 15:15:58.883340,5.114517
2021-04-26 15:15:58.898960,12.37157
2021-04-26 15:15:58.914590,16.94228
2021-04-26 15:15:58.930210,19.37851
2021-04-26 15:15:58.945840,20.40154
2021-04-26 15:15:58.961460,20.58699
2021-04-26 15:15:58.977090,20.26831
2021-04-26 15:15:58.992720,19.69009
2021-04-26 15:15:59.008340,19.1384
2021-04-26 15:15:59.023970,19.02075
2021-04-26 15:15:59.039590,19.69736
2021-04-26 15:15:59.055220,21.25395
2021-04-26 15:15:59.070840,23.35652
2021-04-26 15:15:59.086470,25.36278
2021-04-26 15:15:59.102100,26.60384
2021-04-26 15:15:59.117720,26.74187
2021-04-26 15:15:59.133350,25.93282
2021-04-26 15:15:59.148970,24.66614
2021-04-26 15:15:59.164600,23.38559
2021-04-26 15:15:59.180220,22.21118
2021-04-26 15:15:59.195850,20.82399
2021-04-26 15:15:59.211480,18.76735
2021-04-26 15:15:59.227100,15.77068
2021-04-26 15:15:59.242730,12.01419
2021-04-26 15:15:59.258350,8.049835
2021-04-26 15:15:59.273980,4.431503
2021-04-26 15:15:59.289600,1.366104
2021-04-26 15:15:59.305230,-1.428879
2021-04-26 15:15:59.320860,-4.605164
2021-04-26 15:15:59.336480,-8.824677
2021-04-26 15:15:59.352110,-14.30391
2021-04-26 15:15:59.367730,-20.58354
2021-04-26 15:15:59.383360,-26.55357
2021-04-26 15:15:59.398980,-30.73012
2021-04-26 15:15:59.414610,-31.78552
2021-04-26 15:15:59.430240,-29.02632
2021-04-26 15:15:59.445860,-22.65955
2021-04-26 15:15:59.461490,-13.71049
2021-04-26 15:15:59.477110,-3.633606
2021-04-26 15:15:59.492740,6.225647
2021-04-26 15:15:59.508360,14.9774
2021-04-26 15:15:59.523990,22.30054
2021-04-26 15:15:59.539620,28.21991
2021-04-26 15:15:59.555240,32.80241
2021-04-26 15:15:59.570870,35.96342
2021-04-26 15:15:59.586490,37.51732
2021-04-26 15:15:59.602120,37.39774
2021-04-26 15:15:59.617740,35.80167
2021-04-26 15:15:59.633370,33.25888
2021-04-26 15:15:59.649000,30.47623
2021-04-26 15:15:59.664620,28.14682
2021-04-26 15:15:59.680250,26.8438
2021-04-26 15:15:59.695870,26.86162
2021-04-26 15:15:59.711500,28.1433
2021-04-26 15:15:59.727120,30.11554
2021-04-26 15:15:59.742750,31.80157
2021-04-26 15:15:59.758380,32.03241
2021-04-26 15:15:59.774000,29.93619
2021-04-26 15:15:59.789630,25.37894
2021-04-26 15:15:59.805250,19.12619
2021-04-26 15:15:59.820880,12.57932
2021-04-26 15:15:59.836500,7.158508
2021-04-26 15:15:59.852130,3.679688
2021-04-26 15:15:59.867760,1.958466
2021-04-26 15:15:59.883380,0.9972382
2021-04-26 15:15:59.899010,-0.5279999
2021-04-26 15:15:59.914630,-3.656342
2021-04-26 15:15:59.930260,-8.820282
2021-04-26 15:15:59.945880,-15.81546
2021-04-26 15:15:59.961510,-24.01157
2021-04-26 15:15:59.992760,-40.53349
2021-04-26 15:16:00.008390,-46.82937
2021-04-26 15:16:00.024010,-50.37224
2021-04-26 15:16:00.039640,-50.28904
2021-04-26 15:16:00.055270,-46.26233
2021-04-26 15:16:00.070890,-38.72013
2021-04-26 15:16:00.086520,-28.84767
2021-04-26 15:16:00.102140,-18.23192
2021-04-26 15:16:00.117770,-8.40831
2021-04-26 15:16:00.133390,-0.4190369
2021-04-26 15:16:00.149020,5.382538
2021-04-26 15:16:00.164650,9.216171
2021-04-26 15:16:00.180270,11.55852
2021-04-26 15:16:00.195900,12.7935
2021-04-26 15:16:00.211520,13.07181
2021-04-26 15:16:00.227150,12.34052
2021-04-26 15:16:00.242770,10.6203
2021-04-26 15:16:00.258400,8.169174
2021-04-26 15:16:00.274030,5.550301
2021-04-26 15:16:00.289650,3.468773
2021-04-26 15:16:00.305280,2.512543
2021-04-26 15:16:00.320900,2.812553
2021-04-26 15:16:00.336530,3.992546
2021-04-26 15:16:00.352150,5.374191
2021-04-26 15:16:00.367780,6.271889
2021-04-26 15:16:00.383410,6.353882
2021-04-26 15:16:00.399030,5.75602
2021-04-26 15:16:00.414660,4.899361
2021-04-26 15:16:00.430280,4.145844
2021-04-26 15:16:00.445910,3.561516
2021-04-26 15:16:00.461530,2.894943
2021-04-26 15:16:00.477160,1.766487
2021-04-26 15:16:00.492790,-0.03614044
2021-04-26 15:16:00.508410,-2.517242
2021-04-26 15:16:00.524040,-5.566544
2021-04-26 15:16:00.539660,-9.1623
2021-04-26 15:16:00.555290,-13.48841
2021-04-26 15:16:00.570910,-18.7457
2021-04-26 15:16:00.586540,-24.77557
2021-04-26 15:16:00.602170,-30.7063
2021-04-26 15:16:00.617790,-35.04028
2021-04-26 15:16:00.633420,-36.09517
2021-04-26 15:16:00.649040,-32.75199
2021-04-26 15:16:00.664670,-25.04506
2021-04-26 15:16:00.680290,-14.21141
2021-04-26 15:16:00.695920,-2.280251
2021-04-26 15:16:00.711550,8.732925
2021-04-26 15:16:00.727170,17.42583
2021-04-26 15:16:00.742800,23.29745
2021-04-26 15:16:00.758420,26.59274
2021-04-26 15:16:00.774050,27.96756
2021-04-26 15:16:00.789670,28.10287
2021-04-26 15:16:00.805300,27.53345
2021-04-26 15:16:00.820930,26.56237
2021-04-26 15:16:00.836550,25.28247
2021-04-26 15:16:00.852180,23.60135
2021-04-26 15:16:00.867800,21.32931
2021-04-26 15:16:00.883430,18.32781
2021-04-26 15:16:00.899050,14.68871
2021-04-26 15:16:00.914680,10.79197
2021-04-26 15:16:00.930310,7.250275
2021-04-26 15:16:00.945930,4.660683
2021-04-26 15:16:00.961560,3.337212
2021-04-26 15:16:00.977180,3.144035
2021-04-26 15:16:00.992810,3.562744
2021-04-26 15:16:01.008430,3.885475
2021-04-26 15:16:01.024060,3.524506
2021-04-26 15:16:01.039690,2.256569
2021-04-26 15:16:01.055310,0.2370758
2021-04-26 15:16:01.070940,-2.12809
2021-04-26 15:16:01.086560,-4.466011
2021-04-26 15:16:01.102190,-6.62812
2021-04-26 15:16:01.117810,-8.838966
2021-04-26 15:16:01.133440,-11.58591
2021-04-26 15:16:01.149070,-15.37172
2021-04-26 15:16:01.164690,-20.4039
2021-04-26 15:16:01.180320,-26.29366
2021-04-26 15:16:01.195940,-32.04362
2021-04-26 15:16:01.211570,-36.32033
2021-04-26 15:16:01.227190,-37.90244
2021-04-26 15:16:01.242820,-36.15728
2021-04-26 15:16:01.258450,-31.27502
2021-04-26 15:16:01.274070,-24.14016
2021-04-26 15:16:01.289700,-15.95817
2021-04-26 15:16:01.305320,-7.802795
2021-04-26 15:16:01.320950,-0.3660965
2021-04-26 15:16:01.336570,6.121872
2021-04-26 15:16:01.352200,11.63018
2021-04-26 15:16:01.367830,16.07883
2021-04-26 15:16:01.383450,19.21965
2021-04-26 15:16:01.399080,20.67953
2021-04-26 15:16:01.414700,20.21832
2021-04-26 15:16:01.430330,17.93617
2021-04-26 15:16:01.445950,14.38284
2021-04-26 15:16:01.461580,10.41561
2021-04-26 15:16:01.477210,6.957939
2021-04-26 15:16:01.492830,4.73632
2021-04-26 15:16:01.508460,4.095787
2021-04-26 15:16:01.524080,4.994247
2021-04-26 15:16:01.539710,7.058769
2021-04-26 15:16:01.555330,9.725754
2021-04-26 15:16:01.570960,12.32097
2021-04-26 15:16:01.586590,14.11488
2021-04-26 15:16:01.602210,14.4147
2021-04-26 15:16:01.617840,12.77207
2021-04-26 15:16:01.633460,9.176933
2021-04-26 15:16:01.649090,4.171677
2021-04-26 15:16:01.664710,-1.289879
2021-04-26 15:16:01.680340,-6.21241
2021-04-26 15:16:01.695970,-9.978874
2021-04-26 15:16:01.711590,-12.68122
2021-04-26 15:16:01.727220,-15.01029
2021-04-26 15:16:01.742840,-17.78993
2021-04-26 15:16:01.758470,-21.44436
2021-04-26 15:16:01.774090,-25.61322
2021-04-26 15:16:01.789720,-29.21864
2021-04-26 15:16:01.805350,-30.9241
2021-04-26 15:16:01.820970,-29.79839
2021-04-26 15:16:01.836600,-25.65177
2021-04-26 15:16:01.852220,-19.09888
2021-04-26 15:16:01.867850,-11.20813
2021-04-26 15:16:01.883470,-3.090012
2021-04-26 15:16:01.899100,4.39325
2021-04-26 15:16:01.914730,10.68313
2021-04-26 15:16:01.930350,15.40249
2021-04-26 15:16:01.945980,18.25045
2021-04-26 15:16:01.961600,18.99955
2021-04-26 15:16:01.977230,17.66319
2021-04-26 15:16:01.992850,14.63463
2021-04-26 15:16:02.008480,10.70479
2021-04-26 15:16:02.024110,6.890362
2021-04-26 15:16:02.039730,4.057076
2021-04-26 15:16:02.055360,2.608574
2021-04-26 15:16:02.070980,2.414307
2021-04-26 15:16:02.086610,2.950584
2021-04-26 15:16:02.102230,3.585037
2021-04-26 15:16:02.117860,3.92284
2021-04-26 15:16:02.133490,3.879112
2021-04-26 15:16:02.149110,3.586376
2021-04-26 15:16:02.164740,3.170269
2021-04-26 15:16:02.180360,2.513615
2021-04-26 15:16:02.195990,1.308765
2021-04-26 15:16:02.227240,-3.926216
2021-04-26 15:16:02.242870,-7.931789
2021-04-26 15:16:02.258490,-12.41364
2021-04-26 15:16:02.274120,-17.01628
2021-04-26 15:16:02.289740,-21.62956
2021-04-26 15:16:02.305370,-26.27694
2021-04-26 15:16:02.321000,-30.96347
2021-04-26 15:16:02.336620,-35.33181
2021-04-26 15:16:02.352250,-38.54604
2021-04-26 15:16:02.367870,-39.55241
2021-04-26 15:16:02.383500,-37.5225
2021-04-26 15:16:02.399120,-32.29783
2021-04-26 15:16:02.414750,-24.56304
2021-04-26 15:16:02.430380,-15.626
2021-04-26 15:16:02.446000,-6.868637
2021-04-26 15:16:02.461630,0.7167931
2021-04-26 15:16:02.477250,6.783295
2021-04-26 15:16:02.492880,11.44266
2021-04-26 15:16:02.508500,14.8997
2021-04-26 15:16:02.524130,17.17348
2021-04-26 15:16:02.539760,18.05008
2021-04-26 15:16:02.555380,17.32019
2021-04-26 15:16:02.571010,15.08958
2021-04-26 15:16:02.586630,11.88999
2021-04-26 15:16:02.602260,8.506447
2021-04-26 15:16:02.617880,5.684837
2021-04-26 15:16:02.633510,3.783974
2021-04-26 15:16:02.649140,2.693207
2021-04-26 15:16:02.664760,2.001144
2021-04-26 15:16:02.680390,1.285957
2021-04-26 15:16:02.696010,0.320488
2021-04-26 15:16:02.711640,-0.8449249
2021-04-26 15:16:02.727260,-2.017754
2021-04-26 15:16:02.742890,-3.042953
2021-04-26 15:16:02.758520,-3.897499
2021-04-26 15:16:02.774140,-4.749176
2021-04-26 15:16:02.789770,-5.910919
2021-04-26 15:16:02.805390,-7.78968
2021-04-26 15:16:02.821020,-10.78955
2021-04-26 15:16:02.836640,-15.18659
2021-04-26 15:16:02.852270,-20.85224
2021-04-26 15:16:02.867900,-27.13281
2021-04-26 15:16:02.883520,-32.81765
2021-04-26 15:16:02.899150,-36.46703
2021-04-26 15:16:02.914770,-36.8791
2021-04-26 15:16:02.930400,-33.59317
2021-04-26 15:16:02.946020,-27.03194
2021-04-26 15:16:02.961650,-18.36497
2021-04-26 15:16:02.977280,-8.996994
2021-04-26 15:16:02.992900,-0.07447052
2021-04-26 15:16:03.008530,7.791435
2021-04-26 15:16:03.024150,14.43677
2021-04-26 15:16:03.039780,19.8622
2021-04-26 15:16:03.055400,23.93422
2021-04-26 15:16:03.071030,26.33665
2021-04-26 15:16:03.086660,26.76789
2021-04-26 15:16:03.102280,25.2048
2021-04-26 15:16:03.117910,22.13786
2021-04-26 15:16:03.133530,18.48109
2021-04-26 15:16:03.149160,15.25025
2021-04-26 15:16:03.164780,13.1778
2021-04-26 15:16:03.180410,12.44734
2021-04-26 15:16:03.196040,12.6675
2021-04-26 15:16:03.211660,13.07443
2021-04-26 15:16:03.227290,12.92944
2021-04-26 15:16:03.242910,11.76424
2021-04-26 15:16:03.258540,9.569473
2021-04-26 15:16:03.274160,6.694733
2021-04-26 15:16:03.289790,3.652237
2021-04-26 15:16:03.305420,0.8465118
2021-04-26 15:16:03.321040,-1.642632
2021-04-26 15:16:03.336670,-4.045952
2021-04-26 15:16:03.352290,-6.865463
2021-04-26 15:16:03.367920,-10.68025
2021-04-26 15:16:03.383540,-15.90802
2021-04-26 15:16:03.399170,-22.5947
2021-04-26 15:16:03.414800,-30.21515
2021-04-26 15:16:03.430420,-37.64405
2021-04-26 15:16:03.446050,-43.31312
2021-04-26 15:16:03.461670,-45.61795
2021-04-26 15:16:03.477300,-43.43029
2021-04-26 15:16:03.492920,-36.53315
2021-04-26 15:16:03.508550,-25.78305
2021-04-26 15:16:03.524180,-12.89887
2021-04-26 15:16:03.539800,-0.00213623
2021-04-26 15:16:03.555430,11.02412
2021-04-26 15:16:03.571050,18.96715
2021-04-26 15:16:03.586680,23.56218
2021-04-26 15:16:03.602300,25.29253
2021-04-26 15:16:03.617930,25.11478
2021-04-26 15:16:03.633560,24.05861
2021-04-26 15:16:03.649180,22.86601
2021-04-26 15:16:03.664810,21.89871
2021-04-26 15:16:03.680430,21.16002
2021-04-26 15:16:03.696060,20.46021
2021-04-26 15:16:03.711680,19.57227
2021-04-26 15:16:03.727310,18.44482
2021-04-26 15:16:03.742940,17.17801
2021-04-26 15:16:03.758560,16.0022
2021-04-26 15:16:03.774190,15.15536
2021-04-26 15:16:03.789810,14.84497
2021-04-26 15:16:03.805440,15.33371
2021-04-26 15:16:03.821060,16.87486
2021-04-26 15:16:03.836690,19.64259
2021-04-26 15:16:03.852320,23.47081
2021-04-26 15:16:03.867940,27.69379
2021-04-26 15:16:03.883570,31.18683
2021-04-26 15:16:03.899190,32.70738
2021-04-26 15:16:03.914820,31.41528
2021-04-26 15:16:03.930440,27.20081
2021-04-26 15:16:03.946070,20.75758
2021-04-26 15:16:03.961700,13.17535
2021-04-26 15:16:03.977320,5.355499
2021-04-26 15:16:03.992950,-2.450821
2021-04-26 15:16:04.008570,-10.58424
2021-04-26 15:16:04.024200,-19.55859
2021-04-26 15:16:04.039820,-29.38065
2021-04-26 15:16:04.055450,-39.11491
2021-04-26 15:16:04.071080,-47.04811
2021-04-26 15:16:04.086700,-51.2755
2021-04-26 15:16:04.102330,-50.58904
2021-04-26 15:16:04.117950,-44.99238
2021-04-26 15:16:04.133580,-35.71494
2021-04-26 15:16:04.149200,-24.66946
2021-04-26 15:16:04.164830,-13.6806
2021-04-26 15:16:04.180460,-3.901047
2021-04-26 15:16:04.196080,4.34256
2021-04-26 15:16:04.211710,11.22047
2021-04-26 15:16:04.227330,16.96176
2021-04-26 15:16:04.242960,21.50301
2021-04-26 15:16:04.258580,24.45439
2021-04-26 15:16:04.274210,25.43604
2021-04-26 15:16:04.289840,24.41217
2021-04-26 15:16:04.305460,21.90471
2021-04-26 15:16:04.321090,18.8994
2021-04-26 15:16:04.336710,16.47714
2021-04-26 15:16:04.367960,15.6443
2021-04-26 15:16:04.383590,16.76608
2021-04-26 15:16:04.399220,17.80824
2021-04-26 15:16:04.414840,17.91515
2021-04-26 15:16:04.430470,16.71835
2021-04-26 15:16:04.446090,14.46362
2021-04-26 15:16:04.461720,11.85489
2021-04-26 15:16:04.477340,9.653091
2021-04-26 15:16:04.492970,8.268127
2021-04-26 15:16:04.508600,7.543167
2021-04-26 15:16:04.524220,6.841324
2021-04-26 15:16:04.539850,5.357361
2021-04-26 15:16:04.555470,2.605331
2021-04-26 15:16:04.571100,-1.386948
2021-04-26 15:16:04.586730,-6.025299
2021-04-26 15:16:04.602350,-10.45782
2021-04-26 15:16:04.617980,-13.96947
2021-04-26 15:16:04.633600,-16.31943
2021-04-26 15:16:04.649230,-17.84904
2021-04-26 15:16:04.664850,-19.32291
2021-04-26 15:16:04.680480,-21.59189
2021-04-26 15:16:04.696110,-25.30838
2021-04-26 15:16:04.711730,-30.72067
2021-04-26 15:16:04.727360,-37.61589
2021-04-26 15:16:04.742980,-45.29247
2021-04-26 15:16:04.758610,-52.61691
2021-04-26 15:16:04.774230,-58.18495
2021-04-26 15:16:04.789860,-60.55526
2021-04-26 15:16:04.805490,-58.7231
2021-04-26 15:16:04.821110,-52.44501
2021-04-26 15:16:04.836740,-42.47293
2021-04-26 15:16:04.852360,-30.32716
2021-04-26 15:16:04.867990,-17.81317
2021-04-26 15:16:04.883610,-6.411377
2021-04-26 15:16:04.899240,3.130447
2021-04-26 15:16:04.914870,10.7935
2021-04-26 15:16:04.930490,16.98619
2021-04-26 15:16:04.946120,22.09476
2021-04-26 15:16:04.961740,26.24829
2021-04-26 15:16:04.977370,29.32396
2021-04-26 15:16:04.992990,31.20815
2021-04-26 15:16:05.008620,31.99956
2021-04-26 15:16:05.024250,32.06984
2021-04-26 15:16:05.039870,31.92326
2021-04-26 15:16:05.055500,31.97348
2021-04-26 15:16:05.071120,32.38216
2021-04-26 15:16:05.086750,33.03845
2021-04-26 15:16:05.102370,33.68787
2021-04-26 15:16:05.118000,34.06635
2021-04-26 15:16:05.133630,34.05095
2021-04-26 15:16:05.149250,33.6181
2021-04-26 15:16:05.164880,32.78224
2021-04-26 15:16:05.180500,31.53685
2021-04-26 15:16:05.196130,29.81639
2021-04-26 15:16:05.211750,27.55643
2021-04-26 15:16:05.227380,24.73088
2021-04-26 15:16:05.243010,21.40825
2021-04-26 15:16:05.258630,17.75244
2021-04-26 15:16:05.274260,13.95778
2021-04-26 15:16:05.289880,10.23793
2021-04-26 15:16:05.305510,6.711807
2021-04-26 15:16:05.321130,3.426697
2021-04-26 15:16:05.336760,0.2588043
2021-04-26 15:16:05.352390,-3.063446
2021-04-26 15:16:05.368010,-6.895218
2021-04-26 15:16:05.383640,-11.43188
2021-04-26 15:16:05.399260,-16.48355
2021-04-26 15:16:05.414890,-21.32086
2021-04-26 15:16:05.430510,-24.7823
2021-04-26 15:16:05.446140,-25.6442
2021-04-26 15:16:05.461770,-23.10927
2021-04-26 15:16:05.477390,-17.15601
2021-04-26 15:16:05.493020,-8.58252
2021-04-26 15:16:05.508640,1.262253
2021-04-26 15:16:05.524270,10.92171
2021-04-26 15:16:05.539890,19.17809
2021-04-26 15:16:05.555520,25.23952
2021-04-26 15:16:05.571150,28.73009
2021-04-26 15:16:05.586770,29.60199
2021-04-26 15:16:05.602400,28.05121
2021-04-26 15:16:05.618020,24.4995
2021-04-26 15:16:05.633650,19.57352
2021-04-26 15:16:05.649270,14.04263
2021-04-26 15:16:05.664900,8.683578
2021-04-26 15:16:05.680530,4.10675
2021-04-26 15:16:05.696150,0.6658325
2021-04-26 15:16:05.711780,-1.509308
2021-04-26 15:16:05.727400,-2.487213
2021-04-26 15:16:05.743030,-2.449203
2021-04-26 15:16:05.758650,-1.692825
2021-04-26 15:16:05.774280,-0.6273804
2021-04-26 15:16:05.789910,0.3470764
2021-04-26 15:16:05.805530,0.8605194
2021-04-26 15:16:05.821160,0.6859741
2021-04-26 15:16:05.836780,-0.2446289
2021-04-26 15:16:05.852410,-1.856644
2021-04-26 15:16:05.868030,-4.028397
2021-04-26 15:16:05.883660,-6.652893
2021-04-26 15:16:05.899290,-9.648285
2021-04-26 15:16:05.914910,-12.92801
2021-04-26 15:16:05.930540,-16.37427
2021-04-26 15:16:05.946160,-19.84364
2021-04-26 15:16:05.961790,-23.20169
2021-04-26 15:16:05.977410,-26.42873
2021-04-26 15:16:05.993040,-29.71671
2021-04-26 15:16:06.008670,-33.42827
2021-04-26 15:16:06.024290,-37.86053
2021-04-26 15:16:06.039920,-42.96333
2021-04-26 15:16:06.055540,-48.10263
2021-04-26 15:16:06.071170,-52.05302
2021-04-26 15:16:06.086790,-53.34846
2021-04-26 15:16:06.102420,-50.8273
2021-04-26 15:16:06.118050,-44.11234
2021-04-26 15:16:06.133670,-33.83801
2021-04-26 15:16:06.149300,-21.46623
2021-04-26 15:16:06.164920,-8.768997
2021-04-26 15:16:06.180550,2.71904
2021-04-26 15:16:06.196170,12.08073
2021-04-26 15:16:06.211800,19.03658
2021-04-26 15:16:06.227430,23.74097
2021-04-26 15:16:06.243050,26.55663
2021-04-26 15:16:06.258680,27.87279
2021-04-26 15:16:06.274300,28.12013
2021-04-26 15:16:06.289930,27.80142
2021-04-26 15:16:06.305550,27.50745
2021-04-26 15:16:06.321180,27.76947
2021-04-26 15:16:06.336810,28.8831
2021-04-26 15:16:06.352430,30.77908
2021-04-26 15:16:06.368060,33.05673
2021-04-26 15:16:06.383680,35.13
2021-04-26 15:16:06.399310,36.54066
2021-04-26 15:16:06.414930,37.16534
2021-04-26 15:16:06.430560,37.23927
2021-04-26 15:16:06.446190,37.22063
2021-04-26 15:16:06.461810,37.4697
2021-04-26 15:16:06.477440,37.97545
2021-04-26 15:16:06.493060,38.22203
2021-04-26 15:16:06.508690,37.29893
2021-04-26 15:16:06.524310,34.25284
2021-04-26 15:16:06.539940,28.51517
2021-04-26 15:16:06.555570,20.2596
2021-04-26 15:16:06.571190,10.53084
2021-04-26 15:16:06.586820,0.9622955
2021-04-26 15:16:06.602440,-6.793472
2021-04-26 15:16:06.618070,-11.6799
2021-04-26 15:16:06.633690,-13.62816
2021-04-26 15:16:06.649320,-13.63396
2021-04-26 15:16:06.664950,-13.34552
2021-04-26 15:16:06.680570,-14.42368
2021-04-26 15:16:06.696200,-17.93579
2021-04-26 15:16:06.711820,-23.99107
2021-04-26 15:16:06.727450,-31.85507
2021-04-26 15:16:06.743070,-40.31512
2021-04-26 15:16:06.758700,-48.13878
2021-04-26 15:16:06.774330,-54.35776
2021-04-26 15:16:06.789950,-58.27406
2021-04-26 15:16:06.805580,-59.37386
2021-04-26 15:16:06.821200,-57.26425
2021-04-26 15:16:06.836830,-51.73732
2021-04-26 15:16:06.852450,-42.99915
2021-04-26 15:16:06.868080,-31.78102
2021-04-26 15:16:06.883710,-19.30063
2021-04-26 15:16:06.899330,-7.001465
2021-04-26 15:16:06.914960,3.796234
2021-04-26 15:16:06.930580,12.17191
2021-04-26 15:16:06.946210,17.66313
2021-04-26 15:16:06.961830,20.23563
2021-04-26 15:16:06.977460,20.241
2021-04-26 15:16:06.993090,18.4153
2021-04-26 15:16:07.008710,15.85666
2021-04-26 15:16:07.024340,13.8392
2021-04-26 15:16:07.039960,13.4687
2021-04-26 15:16:07.055590,15.18753
2021-04-26 15:16:07.071210,18.63112
2021-04-26 15:16:07.086840,22.73105
2021-04-26 15:16:07.102470,26.23532
2021-04-26 15:16:07.118090,28.26907
2021-04-26 15:16:07.133720,28.68291
2021-04-26 15:16:07.149340,28.01782
2021-04-26 15:16:07.164970,27.03267
2021-04-26 15:16:07.180600,26.28041
2021-04-26 15:16:07.196220,25.76463
2021-04-26 15:16:07.211850,25.03517
2021-04-26 15:16:07.227470,23.46696
2021-04-26 15:16:07.243100,20.68036
2021-04-26 15:16:07.258720,16.76241
2021-04-26 15:16:07.274350,12.20697
2021-04-26 15:16:07.289980,7.680435
2021-04-26 15:16:07.305600,3.68782
2021-04-26 15:16:07.321230,0.3505707
2021-04-26 15:16:07.336850,-2.645599
2021-04-26 15:16:07.352480,-5.906815
2021-04-26 15:16:07.368100,-10.06516
2021-04-26 15:16:07.383730,-15.48549
2021-04-26 15:16:07.399360,-22.12019
2021-04-26 15:16:07.414980,-29.44736
2021-04-26 15:16:07.430610,-36.55023
2021-04-26 15:16:07.446230,-42.32549
2021-04-26 15:16:07.461860,-45.71112
2021-04-26 15:16:07.477480,-45.94366
2021-04-26 15:16:07.493110,-42.7209
2021-04-26 15:16:07.508740,-36.28432
2021-04-26 15:16:07.524360,-27.3343
2021-04-26 15:16:07.539990,-16.84181
2021-04-26 15:16:07.555610,-5.816391
2021-04-26 15:16:07.571240,4.857895
2021-04-26 15:16:07.586860,14.47165
2021-04-26 15:16:07.602490,22.47708
2021-04-26 15:16:07.618120,28.48561
2021-04-26 15:16:07.633740,32.30891
2021-04-26 15:16:07.649370,34.06937
2021-04-26 15:16:07.664990,34.16695
2021-04-26 15:16:07.680620,33.2085
2021-04-26 15:16:07.696240,31.83287
2021-04-26 15:16:07.727500,29.55693
2021-04-26 15:16:07.743120,28.99638
2021-04-26 15:16:07.758750,28.80873
2021-04-26 15:16:07.774370,28.91202
2021-04-26 15:16:07.790000,29.17282
2021-04-26 15:16:07.805620,29.45305
2021-04-26 15:16:07.821250,29.57576
2021-04-26 15:16:07.836880,29.4136
2021-04-26 15:16:07.852500,28.86163
2021-04-26 15:16:07.868130,27.89636
2021-04-26 15:16:07.883750,26.44836
2021-04-26 15:16:07.899380,24.35995
2021-04-26 15:16:07.915000,21.38696
2021-04-26 15:16:07.930630,17.33379
2021-04-26 15:16:07.946260,12.24738
2021-04-26 15:16:07.961880,6.496201
2021-04-26 15:16:07.977510,0.6867523
2021-04-26 15:16:07.993130,-4.606339
2021-04-26 15:16:08.008760,-9.060944
2021-04-26 15:16:08.024380,-12.74374
2021-04-26 15:16:08.040010,-16.06493
2021-04-26 15:16:08.055640,-19.59486
2021-04-26 15:16:08.071260,-23.84634
2021-04-26 15:16:08.086890,-29.09117
2021-04-26 15:16:08.102510,-35.20634
2021-04-26 15:16:08.118140,-41.63173
2021-04-26 15:16:08.133760,-47.40207
2021-04-26 15:16:08.149390,-51.30318
2021-04-26 15:16:08.165020,-52.21394
2021-04-26 15:16:08.180640,-49.45958
2021-04-26 15:16:08.196270,-43.06414
2021-04-26 15:16:08.211890,-33.81232
2021-04-26 15:16:08.227520,-22.9756
2021-04-26 15:16:08.243140,-11.93958
2021-04-26 15:16:08.258770,-1.831741
2021-04-26 15:16:08.274400,6.657761
2021-04-26 15:16:08.290020,13.19785
2021-04-26 15:16:08.305650,17.67865
2021-04-26 15:16:08.321270,20.09021
2021-04-26 15:16:08.336900,20.58665
2021-04-26 15:16:08.352520,19.50282
2021-04-26 15:16:08.368150,17.44354
2021-04-26 15:16:08.383780,15.12402
2021-04-26 15:16:08.399400,13.17999
2021-04-26 15:16:08.415030,11.95723
2021-04-26 15:16:08.430650,11.38513
2021-04-26 15:16:08.446280,11.12044
2021-04-26 15:16:08.461900,10.78329
2021-04-26 15:16:08.477530,10.22423
2021-04-26 15:16:08.493160,9.618881
2021-04-26 15:16:08.508780,9.391907
2021-04-26 15:16:08.524410,9.951935
2021-04-26 15:16:08.540030,11.37378
2021-04-26 15:16:08.555660,13.2877
2021-04-26 15:16:08.571280,14.9399
2021-04-26 15:16:08.586910,15.53209
2021-04-26 15:16:08.602540,14.54678
2021-04-26 15:16:08.618160,11.94846
2021-04-26 15:16:08.633790,8.183105
2021-04-26 15:16:08.649410,3.937286
2021-04-26 15:16:08.665040,-0.1596069
2021-04-26 15:16:08.680660,-3.798401
2021-04-26 15:16:08.696290,-7.063416
2021-04-26 15:16:08.711920,-10.39642
2021-04-26 15:16:08.727540,-14.34371
2021-04-26 15:16:08.743170,-19.3352
2021-04-26 15:16:08.758790,-25.3784
2021-04-26 15:16:08.774420,-31.94504
2021-04-26 15:16:08.790040,-37.94821
2021-04-26 15:16:08.805670,-42.04694
2021-04-26 15:16:08.821300,-43.06411
2021-04-26 15:16:08.836920,-40.37604
2021-04-26 15:16:08.852550,-34.18214
2021-04-26 15:16:08.868170,-25.40153
2021-04-26 15:16:08.883800,-15.32548
2021-04-26 15:16:08.899420,-5.201775
2021-04-26 15:16:08.915050,4.106056
2021-04-26 15:16:08.930680,12.14024
2021-04-26 15:16:08.946300,18.72509
2021-04-26 15:16:08.961930,23.76698
2021-04-26 15:16:08.977550,27.14329
2021-04-26 15:16:08.993180,28.73536
2021-04-26 15:16:09.008800,28.60763
2021-04-26 15:16:09.024430,27.11908
2021-04-26 15:16:09.040060,24.9103
2021-04-26 15:16:09.055680,22.79151
2021-04-26 15:16:09.071310,21.39011
2021-04-26 15:16:09.086930,20.96162
2021-04-26 15:16:09.102560,21.29758
2021-04-26 15:16:09.118180,21.8177
2021-04-26 15:16:09.133810,21.88483
2021-04-26 15:16:09.149440,21.1269
2021-04-26 15:16:09.165060,19.59705
2021-04-26 15:16:09.180690,17.69189
2021-04-26 15:16:09.196310,15.93536
2021-04-26 15:16:09.211940,14.6823
2021-04-26 15:16:09.227560,13.9486
2021-04-26 15:16:09.243190,13.41731
2021-04-26 15:16:09.258820,12.60221
2021-04-26 15:16:09.274440,11.04642
2021-04-26 15:16:09.290070,8.486877
2021-04-26 15:16:09.305690,4.899086
2021-04-26 15:16:09.321320,0.4833298
2021-04-26 15:16:09.336940,-4.395164
2021-04-26 15:16:09.352570,-9.315239
2021-04-26 15:16:09.368200,-13.936
2021-04-26 15:16:09.383820,-18.07827
2021-04-26 15:16:09.399450,-21.84457
2021-04-26 15:16:09.415070,-25.575
2021-04-26 15:16:09.430700,-29.73631
2021-04-26 15:16:09.446330,-34.67857
2021-04-26 15:16:09.461950,-40.34823
2021-04-26 15:16:09.477580,-46.12257
2021-04-26 15:16:09.493200,-50.88589
2021-04-26 15:16:09.508830,-53.31336
2021-04-26 15:16:09.524450,-52.371
2021-04-26 15:16:09.540080,-47.68702
2021-04-26 15:16:09.555710,-39.73058
2021-04-26 15:16:09.571330,-29.61962
2021-04-26 15:16:09.586960,-18.7084
2021-04-26 15:16:09.602580,-8.083572
2021-04-26 15:16:09.618210,1.613922
2021-04-26 15:16:09.633830,10.16305
2021-04-26 15:16:09.649460,17.46995
2021-04-26 15:16:09.665090,23.36948
2021-04-26 15:16:09.680710,27.5376
2021-04-26 15:16:09.696340,29.71234
2021-04-26 15:16:09.711960,29.93574
2021-04-26 15:16:09.727590,28.68941
2021-04-26 15:16:09.743210,26.78063
2021-04-26 15:16:09.758840,25.04269
2021-04-26 15:16:09.774470,24.0108
2021-04-26 15:16:09.790090,23.79981
2021-04-26 15:16:09.805720,24.12776
2021-04-26 15:16:09.821340,24.57211
2021-04-26 15:16:09.836970,24.77216
2021-04-26 15:16:09.852590,24.60133
2021-04-26 15:16:09.868220,24.1444
2021-04-26 15:16:09.883850,23.57785
2021-04-26 15:16:09.899470,23.01932
2021-04-26 15:16:09.915100,22.44098
2021-04-26 15:16:09.930720,21.65664
2021-04-26 15:16:09.946350,20.39271
2021-04-26 15:16:09.961970,18.38563
2021-04-26 15:16:09.977600,15.48198
2021-04-26 15:16:09.993230,11.69268
2021-04-26 15:16:10.008850,7.211765
2021-04-26 15:16:10.024480,2.351954
2021-04-26 15:16:10.040100,-2.50531
2021-04-26 15:16:10.055730,-7.031849
2021-04-26 15:16:10.071350,-11.05693
2021-04-26 15:16:10.086980,-14.61752
2021-04-26 15:16:10.102610,-17.95271
2021-04-26 15:16:10.118230,-21.4305
2021-04-26 15:16:10.133860,-25.46512
2021-04-26 15:16:10.149480,-30.34504
2021-04-26 15:16:10.165110,-36.09588
2021-04-26 15:16:10.180730,-42.32005
2021-04-26 15:16:10.196360,-48.15679
2021-04-26 15:16:10.211990,-52.4331
2021-04-26 15:16:10.227610,-53.94677
2021-04-26 15:16:10.243240,-51.90019
2021-04-26 15:16:10.258860,-46.16974
2021-04-26 15:16:10.274490,-37.41604
2021-04-26 15:16:10.290110,-26.82652
2021-04-26 15:16:10.305740,-15.7526
2021-04-26 15:16:10.321370,-5.316278
2021-04-26 15:16:10.336990,3.79743
2021-04-26 15:16:10.352620,11.27437
2021-04-26 15:16:10.368240,17.04878
2021-04-26 15:16:10.383870,21.13823
2021-04-26 15:16:10.399490,23.57975
2021-04-26 15:16:10.415120,24.49032
2021-04-26 15:16:10.430750,24.12536
2021-04-26 15:16:10.446370,22.88425
2021-04-26 15:16:10.462000,21.19167
2021-04-26 15:16:10.477620,19.41949
2021-04-26 15:16:10.493250,17.81721
2021-04-26 15:16:10.508870,16.50925
2021-04-26 15:16:10.524500,15.54084
2021-04-26 15:16:10.540130,14.86902
2021-04-26 15:16:10.555750,14.42931
2021-04-26 15:16:10.571380,14.07058
2021-04-26 15:16:10.587000,13.57738
2021-04-26 15:16:10.602630,12.69282
2021-04-26 15:16:10.618250,11.22346
2021-04-26 15:16:10.633880,9.084672
2021-04-26 15:16:10.649510,6.373218
2021-04-26 15:16:10.665130,3.298136
2021-04-26 15:16:10.680760,0.07940769
2021-04-26 15:16:10.696380,-3.171848
2021-04-26 15:16:10.712010,-6.450174
2021-04-26 15:16:10.727630,-9.856041
2021-04-26 15:16:10.743260,-13.44383
2021-04-26 15:16:10.758890,-17.15056
2021-04-26 15:16:10.774510,-20.85889
2021-04-26 15:16:10.790140,-24.49908
2021-04-26 15:16:10.805760,-28.08223
2021-04-26 15:16:10.821390,-31.67018
2021-04-26 15:16:10.837010,-35.15089
2021-04-26 15:16:10.852640,-38.02925
2021-04-26 15:16:10.868270,-39.44423
2021-04-26 15:16:10.883890,-38.40137
2021-04-26 15:16:10.899520,-34.2205
2021-04-26 15:16:10.915140,-26.95263
2021-04-26 15:16:10.930770,-17.44606
2021-04-26 15:16:10.946390,-7.105221
2021-04-26 15:16:10.962020,2.599989
2021-04-26 15:16:10.977650,10.60545
2021-04-26 15:16:10.993270,16.53557
2021-04-26 15:16:11.008900,20.54657
2021-04-26 15:16:11.024520,23.04298
2021-04-26 15:16:11.040150,24.35501
2021-04-26 15:16:11.055770,24.60122
2021-04-26 15:16:11.071400,23.81289
2021-04-26 15:16:11.087030,22.16288
2021-04-26 15:16:11.102650,20.06158
2021-04-26 15:16:11.118280,18.10476
2021-04-26 15:16:11.133900,16.80032
2021-04-26 15:16:11.165150,16.57646
2021-04-26 15:16:11.180780,16.91471
2021-04-26 15:16:11.196410,16.82151
2021-04-26 15:16:11.212030,16.00499
2021-04-26 15:16:11.227660,14.51013
2021-04-26 15:16:11.243280,12.60202
2021-04-26 15:16:11.258910,10.5751
2021-04-26 15:16:11.274530,8.541279
2021-04-26 15:16:11.290160,6.398228
2021-04-26 15:16:11.305790,3.92152
2021-04-26 15:16:11.321410,0.9350548
2021-04-26 15:16:11.337040,-2.59111
2021-04-26 15:16:11.352660,-6.530663
2021-04-26 15:16:11.368290,-10.62056
2021-04-26 15:16:11.383910,-14.60397
2021-04-26 15:16:11.399540,-18.33417
2021-04-26 15:16:11.415170,-21.8512
2021-04-26 15:16:11.430790,-25.42278
2021-04-26 15:16:11.446420,-29.47657
2021-04-26 15:16:11.462040,-34.3734
2021-04-26 15:16:11.477670,-40.13177
2021-04-26 15:16:11.493290,-46.20287
2021-04-26 15:16:11.508920,-51.43604
2021-04-26 15:16:11.524550,-54.4066
2021-04-26 15:16:11.540170,-53.87881
2021-04-26 15:16:11.555800,-49.32145
2021-04-26 15:16:11.571420,-41.14201
2021-04-26 15:16:11.587050,-30.56504
2021-04-26 15:16:11.602670,-19.23989
2021-04-26 15:16:11.618300,-8.746681
2021-04-26 15:16:11.633930,-0.2143707
2021-04-26 15:16:11.649550,5.927101
2021-04-26 15:16:11.665180,9.881245
2021-04-26 15:16:11.680800,12.36504
2021-04-26 15:16:11.696430,14.37122
2021-04-26 15:16:11.712050,16.8512
2021-04-26 15:16:11.727680,20.38321
2021-04-26 15:16:11.743310,24.92912
2021-04-26 15:16:11.758930,29.76777
2021-04-26 15:16:11.774560,33.68979
2021-04-26 15:16:11.790180,35.53479
2021-04-26 15:16:11.805810,34.67511
2021-04-26 15:16:11.821430,31.32459
2021-04-26 15:16:11.837060,26.44801
2021-04-26 15:16:11.852690,21.3528
2021-04-26 15:16:11.868310,17.13879
2021-04-26 15:16:11.883940,14.36488
2021-04-26 15:16:11.899560,12.92796
2021-04-26 15:16:11.915190,12.31348
2021-04-26 15:16:11.930810,11.88675
2021-04-26 15:16:11.946440,11.14766
2021-04-26 15:16:11.962070,9.82378
2021-04-26 15:16:11.977690,7.851669
2021-04-26 15:16:11.993320,5.26321
2021-04-26 15:16:12.008940,2.164516
2021-04-26 15:16:12.024570,-1.330585
2021-04-26 15:16:12.040200,-5.06609
2021-04-26 15:16:12.055820,-8.87981
2021-04-26 15:16:12.071450,-12.66078
2021-04-26 15:16:12.087070,-16.43433
2021-04-26 15:16:12.102700,-20.35144
2021-04-26 15:16:12.118320,-24.64691
2021-04-26 15:16:12.133950,-29.35904
2021-04-26 15:16:12.149580,-34.02571
2021-04-26 15:16:12.165200,-37.59518
2021-04-26 15:16:12.180830,-38.62274
2021-04-26 15:16:12.196450,-35.81822
2021-04-26 15:16:12.212080,-28.69179
2021-04-26 15:16:12.227700,-18.01162
2021-04-26 15:16:12.243330,-5.657318
2021-04-26 15:16:12.258960,5.994549
2021-04-26 15:16:12.274580,14.97745
2021-04-26 15:16:12.290210,20.44887
2021-04-26 15:16:12.305830,22.82692
2021-04-26 15:16:12.321460,23.34787
2021-04-26 15:16:12.337080,23.30391
2021-04-26 15:16:12.352710,23.45723
2021-04-26 15:16:12.368340,23.80934
2021-04-26 15:16:12.383960,23.91272
2021-04-26 15:16:12.399590,23.29712
2021-04-26 15:16:12.415210,21.84425
2021-04-26 15:16:12.430840,19.85522
2021-04-26 15:16:12.446460,17.83376
2021-04-26 15:16:12.462090,16.17739
2021-04-26 15:16:12.477720,15.01154
2021-04-26 15:16:12.493340,14.14197
2021-04-26 15:16:12.508970,13.23025
2021-04-26 15:16:12.524590,12.01799
2021-04-26 15:16:12.540220,10.4789
2021-04-26 15:16:12.555840,8.787708
2021-04-26 15:16:12.571470,7.185169
2021-04-26 15:16:12.587100,5.784847
2021-04-26 15:16:12.602720,4.46579
2021-04-26 15:16:12.618350,2.827801
2021-04-26 15:16:12.633970,0.4394341
2021-04-26 15:16:12.649600,-2.994148
2021-04-26 15:16:12.665220,-7.392517
2021-04-26 15:16:12.680850,-12.33688
2021-04-26 15:16:12.696480,-17.19378
2021-04-26 15:16:12.712100,-21.44571
2021-04-26 15:16:12.727730,-24.98689
2021-04-26 15:16:12.743350,-28.18284
2021-04-26 15:16:12.758980,-31.71589
2021-04-26 15:16:12.774600,-36.11079
2021-04-26 15:16:12.790230,-41.28359
2021-04-26 15:16:12.805860,-46.35081
2021-04-26 15:16:12.821480,-49.811
2021-04-26 15:16:12.837110,-50.16107
2021-04-26 15:16:12.852730,-46.50969
2021-04-26 15:16:12.868360,-39.00498
2021-04-26 15:16:12.883980,-28.77913
2021-04-26 15:16:12.899610,-17.5062
2021-04-26 15:16:12.915240,-6.740479
2021-04-26 15:16:12.930860,2.530155
2021-04-26 15:16:12.946490,9.989815
2021-04-26 15:16:12.962110,15.76925
2021-04-26 15:16:12.977740,20.11287
2021-04-26 15:16:12.993360,23.13023
2021-04-26 15:16:13.008990,24.79635
2021-04-26 15:16:13.024620,25.12338
2021-04-26 15:16:13.040240,24.32191
2021-04-26 15:16:13.055870,22.84548
2021-04-26 15:16:13.071490,21.23942
2021-04-26 15:16:13.087120,19.96942
2021-04-26 15:16:13.102740,19.26055
2021-04-26 15:16:13.118370,19.04896
2021-04-26 15:16:13.134000,19.11865
2021-04-26 15:16:13.149620,19.1799
2021-04-26 15:16:13.165250,19.03456
2021-04-26 15:16:13.180870,18.53991
2021-04-26 15:16:13.196500,17.59577
2021-04-26 15:16:13.212120,16.11217
2021-04-26 15:16:13.227750,13.97549
2021-04-26 15:16:13.243380,11.12951
2021-04-26 15:16:13.259000,7.583706
2021-04-26 15:16:13.274630,3.494156
2021-04-26 15:16:13.290250,-0.8692551
2021-04-26 15:16:13.305880,-5.166676
2021-04-26 15:16:13.321500,-9.081726
2021-04-26 15:16:13.337130,-12.46724
2021-04-26 15:16:13.352760,-15.44936
2021-04-26 15:16:13.368380,-18.44642
2021-04-26 15:16:13.384010,-22.05669
2021-04-26 15:16:13.399630,-26.78549
2021-04-26 15:16:13.415260,-32.66499
2021-04-26 15:16:13.430880,-39.01851
2021-04-26 15:16:13.446510,-44.54188
2021-04-26 15:16:13.462140,-47.6568
2021-04-26 15:16:13.477760,-47.13764
2021-04-26 15:16:13.493390,-42.6477
2021-04-26 15:16:13.509010,-34.85889
2021-04-26 15:16:13.524640,-25.2599
2021-04-26 15:16:13.540260,-15.51751
2021-04-26 15:16:13.555890,-6.890942
2021-04-26 15:16:13.571520,0.05464935
2021-04-26 15:16:13.587140,5.400501
2021-04-26 15:16:13.602770,9.514877
2021-04-26 15:16:13.618390,12.62898
2021-04-26 15:16:13.634020,14.70442
2021-04-26 15:16:13.649640,15.52873
2021-04-26 15:16:13.665270,14.97765
2021-04-26 15:16:13.680900,13.2789
2021-04-26 15:16:13.696520,10.98919
2021-04-26 15:16:13.712150,8.793661
2021-04-26 15:16:13.727770,7.170185
2021-04-26 15:16:13.743400,6.2397
2021-04-26 15:16:13.759020,5.803864
2021-04-26 15:16:13.774650,5.590481
2021-04-26 15:16:13.790280,5.477419
2021-04-26 15:16:13.805900,5.533905
2021-04-26 15:16:13.821530,5.884758
2021-04-26 15:16:13.837150,6.46221
2021-04-26 15:16:13.852780,6.890368
2021-04-26 15:16:13.868400,6.588911
2021-04-26 15:16:13.884030,5.060713
2021-04-26 15:16:13.899660,2.108189
2021-04-26 15:16:13.915280,-2.068386
2021-04-26 15:16:13.930910,-7.034132
2021-04-26 15:16:13.946530,-12.39022
2021-04-26 15:16:13.962160,-17.90727
2021-04-26 15:16:13.977780,-23.65694
2021-04-26 15:16:13.993410,-29.78788
2021-04-26 15:16:14.009040,-36.30292
2021-04-26 15:16:14.024660,-42.79995
2021-04-26 15:16:14.040290,-48.41392
2021-04-26 15:16:14.055910,-51.9389
2021-04-26 15:16:14.071540,-52.24552
2021-04-26 15:16:14.087160,-48.67478
2021-04-26 15:16:14.102790,-41.33891
2021-04-26 15:16:14.118420,-31.19368
2021-04-26 15:16:14.134040,-19.67707
2021-04-26 15:16:14.149670,-8.278057
2021-04-26 15:16:14.165290,1.934274
2021-04-26 15:16:14.180920,10.48672
2021-04-26 15:16:14.196540,17.35886
2021-04-26 15:16:14.212170,22.68289
2021-04-26 15:16:14.227800,26.44262
2021-04-26 15:16:14.243420,28.4627
2021-04-26 15:16:14.259050,28.58633
2021-04-26 15:16:14.274670,26.99174
2021-04-26 15:16:14.290300,24.32474
2021-04-26 15:16:14.305930,21.5832
2021-04-26 15:16:14.321550,19.77536
2021-04-26 15:16:14.337180,19.50067
2021-04-26 15:16:14.352800,20.70818
2021-04-26 15:16:14.368430,22.76197
2021-04-26 15:16:14.384050,24.76318
2021-04-26 15:16:14.399680,25.9107
2021-04-26 15:16:14.430930,24.59387
2021-04-26 15:16:14.446560,22.5433
2021-04-26 15:16:14.462180,20.08468
2021-04-26 15:16:14.477810,17.43494
2021-04-26 15:16:14.493430,14.59134
2021-04-26 15:16:14.509060,11.38993
2021-04-26 15:16:14.524690,7.667442
2021-04-26 15:16:14.540310,3.401295
2021-04-26 15:16:14.555940,-1.292824
2021-04-26 15:16:14.571560,-6.256123
2021-04-26 15:16:14.587190,-11.40477
2021-04-26 15:16:14.602810,-16.76122
2021-04-26 15:16:14.618440,-22.33925
2021-04-26 15:16:14.634070,-27.92311
2021-04-26 15:16:14.649690,-32.87776
2021-04-26 15:16:14.665320,-36.20973
2021-04-26 15:16:14.680940,-36.8286
2021-04-26 15:16:14.696570,-34.01695
2021-04-26 15:16:14.712190,-27.75229
2021-04-26 15:16:14.727820,-18.80975
2021-04-26 15:16:14.743450,-8.470539
2021-04-26 15:16:14.759070,1.929329
2021-04-26 15:16:14.774700,11.39381
2021-04-26 15:16:14.790320,19.43279
2021-04-26 15:16:14.805950,25.92816
2021-04-26 15:16:14.821570,30.91853
2021-04-26 15:16:14.837200,34.40782
2021-04-26 15:16:14.852830,36.29646
2021-04-26 15:16:14.868450,36.54257
2021-04-26 15:16:14.884080,35.30515
2021-04-26 15:16:14.899700,33.00463
2021-04-26 15:16:14.915330,30.2758
2021-04-26 15:16:14.930950,27.78897
2021-04-26 15:16:14.946580,26.03545
2021-04-26 15:16:14.962210,25.20763
2021-04-26 15:16:14.977830,25.14593
2021-04-26 15:16:14.993460,25.4625
2021-04-26 15:16:15.009080,25.67767
2021-04-26 15:16:15.024710,25.40099
2021-04-26 15:16:15.040330,24.38142
2021-04-26 15:16:15.055960,22.53049
2021-04-26 15:16:15.071590,19.88094
2021-04-26 15:16:15.087210,16.53802
2021-04-26 15:16:15.102840,12.65737
2021-04-26 15:16:15.118460,8.467346
2021-04-26 15:16:15.134090,4.193222
2021-04-26 15:16:15.149710,0.038414
2021-04-26 15:16:15.165340,-3.964439
2021-04-26 15:16:15.180970,-7.996223
2021-04-26 15:16:15.196590,-12.42967
2021-04-26 15:16:15.212220,-17.66212
2021-04-26 15:16:15.227840,-23.8587
2021-04-26 15:16:15.243470,-30.6983
2021-04-26 15:16:15.259090,-37.26393
2021-04-26 15:16:15.274720,-42.21959
2021-04-26 15:16:15.290350,-44.18364
2021-04-26 15:16:15.305970,-42.27127
2021-04-26 15:16:15.321600,-36.40574
2021-04-26 15:16:15.337220,-27.39195
2021-04-26 15:16:15.352850,-16.65328
2021-04-26 15:16:15.368470,-5.688286
2021-04-26 15:16:15.384100,4.339279
2021-04-26 15:16:15.399730,12.82907
2021-04-26 15:16:15.415350,19.63423
2021-04-26 15:16:15.430980,24.79356
2021-04-26 15:16:15.446600,28.26958
2021-04-26 15:16:15.462230,29.95047
2021-04-26 15:16:15.477850,29.73864
2021-04-26 15:16:15.493480,27.79987
2021-04-26 15:16:15.509110,24.67788
2021-04-26 15:16:15.524730,21.22097
2021-04-26 15:16:15.540360,18.29585
2021-04-26 15:16:15.555980,16.50668
2021-04-26 15:16:15.571610,15.97499
2021-04-26 15:16:15.587230,16.38056
2021-04-26 15:16:15.602860,17.1459
2021-04-26 15:16:15.618490,17.69421
2021-04-26 15:16:15.634110,17.6223
2021-04-26 15:16:15.649740,16.77116
2021-04-26 15:16:15.665360,15.17695
2021-04-26 15:16:15.680990,12.95895
2021-04-26 15:16:15.696610,10.23799
2021-04-26 15:16:15.712240,7.098816
2021-04-26 15:16:15.727870,3.582542
2021-04-26 15:16:15.743490,-0.3116455
2021-04-26 15:16:15.759120,-4.589088
2021-04-26 15:16:15.774740,-9.303719
2021-04-26 15:16:15.790370,-14.49595
2021-04-26 15:16:15.805990,-20.18029
2021-04-26 15:16:15.821620,-26.19324
2021-04-26 15:16:15.837250,-32.10876
2021-04-26 15:16:15.852870,-37.20651
2021-04-26 15:16:15.868500,-40.56138
2021-04-26 15:16:15.884120,-41.29653
2021-04-26 15:16:15.899750,-38.85396
2021-04-26 15:16:15.915370,-33.18501
2021-04-26 15:16:15.931000,-24.81145
2021-04-26 15:16:15.946630,-14.71275
2021-04-26 15:16:15.962250,-4.020569
2021-04-26 15:16:15.977880,6.211586
2021-04-26 15:16:15.993500,15.17986
2021-04-26 15:16:16.009130,22.37959
2021-04-26 15:16:16.024750,27.5118
2021-04-26 15:16:16.040380,30.40369
2021-04-26 15:16:16.056010,31.0377
2021-04-26 15:16:16.071630,29.58753
2021-04-26 15:16:16.087260,26.51322
2021-04-26 15:16:16.102880,22.57767
2021-04-26 15:16:16.118510,18.70291
2021-04-26 15:16:16.134130,15.70914
2021-04-26 15:16:16.149760,14.04202
2021-04-26 15:16:16.165390,13.60817
2021-04-26 15:16:16.181010,13.8372
2021-04-26 15:16:16.196640,13.94646
2021-04-26 15:16:16.212260,13.29613
