Datetime,value
BVP
2021-05-05 11:37:43.469610,11.20886
2021-05-05 11:37:43.485240,12.22472
2021-05-05 11:37:43.500860,12.94012
2021-05-05 11:37:43.516490,12.81219
2021-05-05 11:37:43.532120,11.54346
2021-05-05 11:37:43.547740,9.11911
2021-05-05 11:37:43.563370,5.748184
2021-05-05 11:37:43.578990,1.70961
2021-05-05 11:37:43.594620,-2.763351
2021-05-05 11:37:43.610240,-7.450165
2021-05-05 11:37:43.625870,-12.05074
2021-05-05 11:37:43.641500,-16.14311
2021-05-05 11:37:43.657120,-19.26987
2021-05-05 11:37:43.672750,-21.05804
2021-05-05 11:37:43.688370,-21.44319
2021-05-05 11:37:43.704000,-20.70493
2021-05-05 11:37:43.719620,-19.45619
2021-05-05 11:37:43.735250,-18.43828
2021-05-05 11:37:43.750880,-18.32143
2021-05-05 11:37:43.766500,-19.50917
2021-05-05 11:37:43.782130,-22.05641
2021-05-05 11:37:43.797750,-25.65878
2021-05-05 11:37:43.813380,-29.63684
2021-05-05 11:37:43.829000,-33.04637
2021-05-05 11:37:43.844630,-34.85204
2021-05-05 11:37:43.860260,-34.20831
2021-05-05 11:37:43.875880,-30.82599
2021-05-05 11:37:43.891510,-25.13991
2021-05-05 11:37:43.907130,-18.25092
2021-05-05 11:37:43.922760,-11.52377
2021-05-05 11:37:43.938380,-6.137894
2021-05-05 11:37:43.954010,-2.664948
2021-05-05 11:37:43.969640,-1.008255
2021-05-05 11:37:43.985260,-0.5597687
2021-05-05 11:37:44.000890,-0.5429688
2021-05-05 11:37:44.016510,-0.3262634
2021-05-05 11:37:44.032140,0.4408875
2021-05-05 11:37:44.047760,1.84758
2021-05-05 11:37:44.063390,3.763977
2021-05-05 11:37:44.079020,5.939926
2021-05-05 11:37:44.094640,8.036255
2021-05-05 11:37:44.110270,9.698822
2021-05-05 11:37:44.125890,10.65196
2021-05-05 11:37:44.141520,10.82059
2021-05-05 11:37:44.157140,10.36258
2021-05-05 11:37:44.172770,9.588379
2021-05-05 11:37:44.188400,8.797592
2021-05-05 11:37:44.204020,8.150864
2021-05-05 11:37:44.219650,7.606873
2021-05-05 11:37:44.235270,7.023392
2021-05-05 11:37:44.250900,6.239624
2021-05-05 11:37:44.266520,5.155762
2021-05-05 11:37:44.282150,3.73999
2021-05-05 11:37:44.297780,2.002365
2021-05-05 11:37:44.313400,-0.01306152
2021-05-05 11:37:44.329030,-2.210419
2021-05-05 11:37:44.344650,-4.448181
2021-05-05 11:37:44.360280,-6.622009
2021-05-05 11:37:44.375900,-8.710495
2021-05-05 11:37:44.391530,-10.84792
2021-05-05 11:37:44.407160,-13.27182
2021-05-05 11:37:44.422780,-16.15547
2021-05-05 11:37:44.438410,-19.4194
2021-05-05 11:37:44.454030,-22.63554
2021-05-05 11:37:44.469660,-25.11737
2021-05-05 11:37:44.485290,-26.13678
2021-05-05 11:37:44.500910,-25.25121
2021-05-05 11:37:44.516540,-22.45171
2021-05-05 11:37:44.532160,-18.14128
2021-05-05 11:37:44.547790,-12.90663
2021-05-05 11:37:44.563410,-7.277115
2021-05-05 11:37:44.579040,-1.545609
2021-05-05 11:37:44.594670,4.198181
2021-05-05 11:37:44.610290,9.956192
2021-05-05 11:37:44.625920,15.70041
2021-05-05 11:37:44.641540,21.33427
2021-05-05 11:37:44.657170,26.74008
2021-05-05 11:37:44.672790,31.83707
2021-05-05 11:37:44.688420,36.57883
2021-05-05 11:37:44.704050,40.91385
2021-05-05 11:37:44.719670,44.70485
2021-05-05 11:37:44.735300,47.71863
2021-05-05 11:37:44.750920,49.69438
2021-05-05 11:37:44.766550,50.44528
2021-05-05 11:37:44.782170,49.93843
2021-05-05 11:37:44.797800,48.30579
2021-05-05 11:37:44.813430,45.7894
2021-05-05 11:37:44.829050,42.65579
2021-05-05 11:37:44.844680,39.16451
2021-05-05 11:37:44.860300,35.52524
2021-05-05 11:37:44.875930,31.88707
2021-05-05 11:37:44.891550,28.31017
2021-05-05 11:37:44.907180,24.72331
2021-05-05 11:37:44.922810,20.95181
2021-05-05 11:37:44.938430,16.81105
2021-05-05 11:37:44.954060,12.23059
2021-05-05 11:37:44.969680,7.360275
2021-05-05 11:37:44.985310,2.545135
2021-05-05 11:37:45.000930,-1.843323
2021-05-05 11:37:45.016560,-5.618332
2021-05-05 11:37:45.032190,-8.931732
2021-05-05 11:37:45.047810,-12.21022
2021-05-05 11:37:45.063440,-15.95879
2021-05-05 11:37:45.079060,-20.41473
2021-05-05 11:37:45.094690,-25.34602
2021-05-05 11:37:45.110310,-30.05908
2021-05-05 11:37:45.125940,-33.60468
2021-05-05 11:37:45.141570,-35.11655
2021-05-05 11:37:45.157190,-34.11185
2021-05-05 11:37:45.172820,-30.64175
2021-05-05 11:37:45.188440,-25.24004
2021-05-05 11:37:45.204070,-18.71176
2021-05-05 11:37:45.219690,-11.86877
2021-05-05 11:37:45.235320,-5.33551
2021-05-05 11:37:45.250950,0.5331726
2021-05-05 11:37:45.266570,5.615601
2021-05-05 11:37:45.282200,9.901581
2021-05-05 11:37:45.297820,13.3907
2021-05-05 11:37:45.313450,16.06587
2021-05-05 11:37:45.329070,17.92668
2021-05-05 11:37:45.344700,19.05275
2021-05-05 11:37:45.360330,19.64151
2021-05-05 11:37:45.375950,19.97083
2021-05-05 11:37:45.391580,20.31512
2021-05-05 11:37:45.407200,20.8392
2021-05-05 11:37:45.422830,21.53668
2021-05-05 11:37:45.438450,22.23776
2021-05-05 11:37:45.454080,22.6898
2021-05-05 11:37:45.469710,22.66034
2021-05-05 11:37:45.485330,22.06123
2021-05-05 11:37:45.500960,20.96646
2021-05-05 11:37:45.516580,19.62491
2021-05-05 11:37:45.532210,18.34537
2021-05-05 11:37:45.547830,17.3887
2021-05-05 11:37:45.563460,16.81429
2021-05-05 11:37:45.579090,16.46159
2021-05-05 11:37:45.594710,16.01036
2021-05-05 11:37:45.610340,15.09998
2021-05-05 11:37:45.625960,13.48415
2021-05-05 11:37:45.641590,11.09285
2021-05-05 11:37:45.657210,8.049759
2021-05-05 11:37:45.672840,4.616913
2021-05-05 11:37:45.688470,1.134964
2021-05-05 11:37:45.704090,-2.041855
2021-05-05 11:37:45.719720,-4.635803
2021-05-05 11:37:45.735340,-6.548782
2021-05-05 11:37:45.750970,-7.967926
2021-05-05 11:37:45.766590,-9.32663
2021-05-05 11:37:45.782220,-11.18222
2021-05-05 11:37:45.797850,-13.97307
2021-05-05 11:37:45.813470,-17.76793
2021-05-05 11:37:45.829100,-22.157
2021-05-05 11:37:45.844720,-26.34555
2021-05-05 11:37:45.860350,-29.37761
2021-05-05 11:37:45.875970,-30.44174
2021-05-05 11:37:45.891600,-29.121
2021-05-05 11:37:45.907230,-25.52429
2021-05-05 11:37:45.922850,-20.31259
2021-05-05 11:37:45.938480,-14.54437
2021-05-05 11:37:45.954100,-9.434525
2021-05-05 11:37:45.969730,-5.982208
2021-05-05 11:37:45.985350,-4.647552
2021-05-05 11:37:46.000980,-5.179779
2021-05-05 11:37:46.016610,-6.731949
2021-05-05 11:37:46.032230,-8.232346
2021-05-05 11:37:46.047860,-8.823975
2021-05-05 11:37:46.063480,-8.167709
2021-05-05 11:37:46.079110,-6.433212
2021-05-05 11:37:46.094730,-4.033539
2021-05-05 11:37:46.110360,-1.316208
2021-05-05 11:37:46.125990,1.618408
2021-05-05 11:37:46.141610,4.793289
2021-05-05 11:37:46.157240,8.173386
2021-05-05 11:37:46.172860,11.47485
2021-05-05 11:37:46.188490,14.21564
2021-05-05 11:37:46.204110,15.94788
2021-05-05 11:37:46.219740,16.55574
2021-05-05 11:37:46.235370,16.44109
2021-05-05 11:37:46.250990,16.42377
2021-05-05 11:37:46.266620,17.43355
2021-05-05 11:37:46.282240,20.0717
2021-05-05 11:37:46.297870,24.29396
2021-05-05 11:37:46.313490,29.41025
2021-05-05 11:37:46.329120,34.43908
2021-05-05 11:37:46.344750,38.65083
2021-05-05 11:37:46.360370,42.01344
2021-05-05 11:37:46.376000,45.23549
2021-05-05 11:37:46.391620,49.35113
2021-05-05 11:37:46.407250,55.04221
2021-05-05 11:37:46.422870,62.09792
2021-05-05 11:37:46.438500,69.33924
2021-05-05 11:37:46.454130,75.13284
2021-05-05 11:37:46.469750,78.21573
2021-05-05 11:37:46.485380,78.37706
2021-05-05 11:37:46.501000,76.55009
2021-05-05 11:37:46.516630,74.26016
2021-05-05 11:37:46.532250,72.73175
2021-05-05 11:37:46.547880,72.06287
2021-05-05 11:37:46.563510,71.12917
2021-05-05 11:37:46.579130,68.13524
2021-05-05 11:37:46.594760,61.64346
2021-05-05 11:37:46.610380,51.43455
2021-05-05 11:37:46.626010,38.72214
2021-05-05 11:37:46.641630,25.56367
2021-05-05 11:37:46.657260,13.89581
2021-05-05 11:37:46.672890,4.857908
2021-05-05 11:37:46.688510,-1.275641
2021-05-05 11:37:46.704140,-4.516842
2021-05-05 11:37:46.719760,-4.664268
2021-05-05 11:37:46.735390,-1.242268
2021-05-05 11:37:46.751010,5.837345
2021-05-05 11:37:46.766640,15.48399
2021-05-05 11:37:46.782270,25.18499
2021-05-05 11:37:46.797890,31.76245
2021-05-05 11:37:46.813520,32.93332
2021-05-05 11:37:46.829140,28.59828
2021-05-05 11:37:46.844770,21.12467
2021-05-05 11:37:46.860390,14.08734
2021-05-05 11:37:46.876020,10.37496
2021-05-05 11:37:46.891650,10.65294
2021-05-05 11:37:46.907270,13.25014
2021-05-05 11:37:46.922900,15.4389
2021-05-05 11:37:46.938520,15.34905
2021-05-05 11:37:46.954150,13.1964
2021-05-05 11:37:46.969770,10.94931
2021-05-05 11:37:46.985400,10.63016
2021-05-05 11:37:47.001030,12.27303
2021-05-05 11:37:47.016650,13.14447
2021-05-05 11:37:47.032280,8.906494
2021-05-05 11:37:47.047900,-3.859039
2021-05-05 11:37:47.063530,-25.1273
2021-05-05 11:37:47.079160,-50.74817
2021-05-05 11:37:47.094780,-74.09416
2021-05-05 11:37:47.110410,-89.26154
2021-05-05 11:37:47.126030,-93.89619
2021-05-05 11:37:47.141660,-90.07387
2021-05-05 11:37:47.157280,-82.75098
2021-05-05 11:37:47.172910,-76.87863
2021-05-05 11:37:47.188540,-74.94507
2021-05-05 11:37:47.204160,-76.28136
2021-05-05 11:37:47.219790,-78.36719
2021-05-05 11:37:47.235410,-78.97121
2021-05-05 11:37:47.251040,-77.72766
2021-05-05 11:37:47.266660,-76.1842
2021-05-05 11:37:47.282290,-76.53848
2021-05-05 11:37:47.297920,-80.03491
2021-05-05 11:37:47.313540,-86.09689
2021-05-05 11:37:47.329170,-92.59509
2021-05-05 11:37:47.344790,-96.8334
2021-05-05 11:37:47.360420,-96.85574
2021-05-05 11:37:47.376040,-92.12985
2021-05-05 11:37:47.391670,-83.62158
2021-05-05 11:37:47.407300,-73.15417
2021-05-05 11:37:47.422920,-62.60883
2021-05-05 11:37:47.438550,-53.23596
2021-05-05 11:37:47.454170,-45.39597
2021-05-05 11:37:47.469800,-38.71774
2021-05-05 11:37:47.485420,-32.55438
2021-05-05 11:37:47.501050,-26.50275
2021-05-05 11:37:47.516680,-20.68646
2021-05-05 11:37:47.532300,-15.70798
2021-05-05 11:37:47.547930,-12.30466
2021-05-05 11:37:47.563550,-10.92017
2021-05-05 11:37:47.579180,-11.42075
2021-05-05 11:37:47.594800,-13.11942
2021-05-05 11:37:47.610430,-15.06488
2021-05-05 11:37:47.626060,-16.49969
2021-05-05 11:37:47.641680,-17.189
2021-05-05 11:37:47.657310,-17.46964
2021-05-05 11:37:47.672930,-18.01175
2021-05-05 11:37:47.688560,-19.41071
2021-05-05 11:37:47.704180,-21.82858
2021-05-05 11:37:47.719810,-24.88742
2021-05-05 11:37:47.735440,-27.83188
2021-05-05 11:37:47.751060,-29.84497
2021-05-05 11:37:47.766690,-30.41205
2021-05-05 11:37:47.782310,-29.52823
2021-05-05 11:37:47.797940,-27.6626
2021-05-05 11:37:47.813560,-25.54419
2021-05-05 11:37:47.829190,-23.84476
2021-05-05 11:37:47.844820,-22.91702
2021-05-05 11:37:47.860440,-22.7059
2021-05-05 11:37:47.876070,-22.85101
2021-05-05 11:37:47.891690,-22.94247
2021-05-05 11:37:47.907320,-22.73727
2021-05-05 11:37:47.922940,-22.27374
2021-05-05 11:37:47.938570,-21.76593
2021-05-05 11:37:47.954200,-21.35138
2021-05-05 11:37:47.969820,-20.86258
2021-05-05 11:37:47.985450,-19.80789
2021-05-05 11:37:48.001070,-17.49472
2021-05-05 11:37:48.016700,-13.35275
2021-05-05 11:37:48.032320,-7.205383
2021-05-05 11:37:48.047950,0.6191101
2021-05-05 11:37:48.063580,9.382538
2021-05-05 11:37:48.079200,18.20071
2021-05-05 11:37:48.110450,33.26108
2021-05-05 11:37:48.126080,38.98859
2021-05-05 11:37:48.141700,43.67862
2021-05-05 11:37:48.157330,47.62506
2021-05-05 11:37:48.172960,51.03885
2021-05-05 11:37:48.188580,53.98047
2021-05-05 11:37:48.204210,56.39569
2021-05-05 11:37:48.219830,58.25015
2021-05-05 11:37:48.235460,59.6087
2021-05-05 11:37:48.251080,60.70157
2021-05-05 11:37:48.266710,61.83987
2021-05-05 11:37:48.282340,63.28391
2021-05-05 11:37:48.297960,65.13739
2021-05-05 11:37:48.313590,67.34427
2021-05-05 11:37:48.329210,69.80045
2021-05-05 11:37:48.344840,72.46124
2021-05-05 11:37:48.360460,75.40063
2021-05-05 11:37:48.376090,78.72372
2021-05-05 11:37:48.391720,82.392
2021-05-05 11:37:48.407340,86.10229
2021-05-05 11:37:48.422970,89.24731
2021-05-05 11:37:48.438590,91.05792
2021-05-05 11:37:48.454220,90.77969
2021-05-05 11:37:48.469840,87.86511
2021-05-05 11:37:48.485470,82.00668
2021-05-05 11:37:48.501100,73.21552
2021-05-05 11:37:48.516720,61.73294
2021-05-05 11:37:48.532350,48.04926
2021-05-05 11:37:48.547970,32.80118
2021-05-05 11:37:48.563600,16.716
2021-05-05 11:37:48.579220,0.509613
2021-05-05 11:37:48.594850,-15.17529
2021-05-05 11:37:48.610480,-29.80359
2021-05-05 11:37:48.626100,-42.92038
2021-05-05 11:37:48.641730,-54.13885
2021-05-05 11:37:48.657350,-63.13809
2021-05-05 11:37:48.672980,-69.73828
2021-05-05 11:37:48.688600,-73.98038
2021-05-05 11:37:48.704230,-76.15714
2021-05-05 11:37:48.719860,-76.75702
2021-05-05 11:37:48.735480,-76.36771
2021-05-05 11:37:48.751110,-75.49283
2021-05-05 11:37:48.766730,-74.40936
2021-05-05 11:37:48.782360,-73.11002
2021-05-05 11:37:48.797980,-71.35855
2021-05-05 11:37:48.813610,-68.84711
2021-05-05 11:37:48.829240,-65.39767
2021-05-05 11:37:48.844860,-61.10995
2021-05-05 11:37:48.860490,-56.41718
2021-05-05 11:37:48.876110,-51.95465
2021-05-05 11:37:48.891740,-48.3306
2021-05-05 11:37:48.907360,-45.8804
2021-05-05 11:37:48.922990,-44.56921
2021-05-05 11:37:48.938620,-44.02783
2021-05-05 11:37:48.954240,-43.71738
2021-05-05 11:37:48.969870,-43.13132
2021-05-05 11:37:48.985490,-41.93213
2021-05-05 11:37:49.001120,-39.95676
2021-05-05 11:37:49.016740,-37.21405
2021-05-05 11:37:49.032370,-33.83618
2021-05-05 11:37:49.048000,-30.09204
2021-05-05 11:37:49.063620,-26.36209
2021-05-05 11:37:49.079250,-23.10968
2021-05-05 11:37:49.094870,-20.75323
2021-05-05 11:37:49.110500,-19.56024
2021-05-05 11:37:49.126120,-19.5224
2021-05-05 11:37:49.141750,-20.38138
2021-05-05 11:37:49.157380,-21.67969
2021-05-05 11:37:49.188630,-23.93655
2021-05-05 11:37:49.204250,-24.52438
2021-05-05 11:37:49.219880,-24.89545
2021-05-05 11:37:49.235500,-25.30161
2021-05-05 11:37:49.251130,-25.89478
2021-05-05 11:37:49.266760,-26.57321
2021-05-05 11:37:49.282380,-26.93417
2021-05-05 11:37:49.298010,-26.40881
2021-05-05 11:37:49.313630,-24.4761
2021-05-05 11:37:49.329260,-20.90411
2021-05-05 11:37:49.344890,-15.806
2021-05-05 11:37:49.360510,-9.610168
2021-05-05 11:37:49.376140,-2.843536
2021-05-05 11:37:49.391760,4.049683
2021-05-05 11:37:49.407390,10.77338
2021-05-05 11:37:49.423010,17.10849
2021-05-05 11:37:49.438640,22.78891
2021-05-05 11:37:49.454270,27.41632
2021-05-05 11:37:49.469890,30.56494
2021-05-05 11:37:49.485520,31.95761
2021-05-05 11:37:49.501140,31.67578
2021-05-05 11:37:49.516770,30.18704
2021-05-05 11:37:49.532390,28.1998
2021-05-05 11:37:49.548020,26.37308
2021-05-05 11:37:49.563650,25.08167
2021-05-05 11:37:49.579270,24.29306
2021-05-05 11:37:49.594900,23.71848
2021-05-05 11:37:49.610520,23.0127
2021-05-05 11:37:49.626150,22.00439
2021-05-05 11:37:49.641770,20.70197
2021-05-05 11:37:49.657400,19.21698
2021-05-05 11:37:49.673030,17.56467
2021-05-05 11:37:49.688650,15.58975
2021-05-05 11:37:49.704280,13.00577
2021-05-05 11:37:49.719900,9.575745
2021-05-05 11:37:49.735530,5.31723
2021-05-05 11:37:49.751150,0.541153
2021-05-05 11:37:49.766780,-4.221146
2021-05-05 11:37:49.782410,-8.449463
2021-05-05 11:37:49.798030,-11.8316
2021-05-05 11:37:49.813660,-14.35643
2021-05-05 11:37:49.829280,-16.3203
2021-05-05 11:37:49.844910,-18.11189
2021-05-05 11:37:49.860530,-20.11179
2021-05-05 11:37:49.876160,-22.5571
2021-05-05 11:37:49.891790,-25.60678
2021-05-05 11:37:49.907410,-29.26697
2021-05-05 11:37:49.923040,-33.46132
2021-05-05 11:37:49.938660,-37.8871
2021-05-05 11:37:49.954290,-41.9828
2021-05-05 11:37:49.969910,-44.96121
2021-05-05 11:37:49.985540,-45.98512
2021-05-05 11:37:50.001170,-44.43416
2021-05-05 11:37:50.016790,-40.1357
2021-05-05 11:37:50.032420,-33.48158
2021-05-05 11:37:50.048040,-25.32193
2021-05-05 11:37:50.063670,-16.7108
2021-05-05 11:37:50.079290,-8.586197
2021-05-05 11:37:50.094920,-1.562454
2021-05-05 11:37:50.110550,4.13269
2021-05-05 11:37:50.126170,8.584503
2021-05-05 11:37:50.141800,12.02489
2021-05-05 11:37:50.157420,14.71738
2021-05-05 11:37:50.173050,16.83807
2021-05-05 11:37:50.188670,18.51239
2021-05-05 11:37:50.204300,19.80931
2021-05-05 11:37:50.219930,20.82941
2021-05-05 11:37:50.235550,21.69496
2021-05-05 11:37:50.251180,22.5446
2021-05-05 11:37:50.266800,23.46118
2021-05-05 11:37:50.282430,24.40588
2021-05-05 11:37:50.298050,25.2305
2021-05-05 11:37:50.313680,25.73465
2021-05-05 11:37:50.329310,25.77159
2021-05-05 11:37:50.344930,25.3204
2021-05-05 11:37:50.360560,24.46693
2021-05-05 11:37:50.376180,23.37976
2021-05-05 11:37:50.391810,22.1785
2021-05-05 11:37:50.423060,19.58501
2021-05-05 11:37:50.438690,18.03616
2021-05-05 11:37:50.454310,16.12598
2021-05-05 11:37:50.469940,13.7233
2021-05-05 11:37:50.485560,10.76094
2021-05-05 11:37:50.501190,7.298309
2021-05-05 11:37:50.516810,3.548294
2021-05-05 11:37:50.532440,-0.1664124
2021-05-05 11:37:50.548070,-3.495636
2021-05-05 11:37:50.563690,-6.222069
2021-05-05 11:37:50.579320,-8.381828
2021-05-05 11:37:50.594940,-10.27373
2021-05-05 11:37:50.610570,-12.36577
2021-05-05 11:37:50.626190,-15.07191
2021-05-05 11:37:50.641820,-18.56026
2021-05-05 11:37:50.657450,-22.60981
2021-05-05 11:37:50.673070,-26.64639
2021-05-05 11:37:50.688700,-29.87463
2021-05-05 11:37:50.704320,-31.49741
2021-05-05 11:37:50.719950,-30.9138
2021-05-05 11:37:50.735570,-27.8846
2021-05-05 11:37:50.751200,-22.58541
2021-05-05 11:37:50.766830,-15.56619
2021-05-05 11:37:50.782450,-7.61467
2021-05-05 11:37:50.798080,0.4091911
2021-05-05 11:37:50.813700,7.779446
2021-05-05 11:37:50.829330,14.0222
2021-05-05 11:37:50.844950,18.98991
2021-05-05 11:37:50.860580,22.80735
2021-05-05 11:37:50.876210,25.80234
2021-05-05 11:37:50.891830,28.32802
2021-05-05 11:37:50.907460,30.66666
2021-05-05 11:37:50.923080,32.96017
2021-05-05 11:37:50.938710,35.18037
2021-05-05 11:37:50.954330,37.19371
2021-05-05 11:37:50.969960,38.82384
2021-05-05 11:37:50.985590,39.92149
2021-05-05 11:37:51.001210,40.38451
2021-05-05 11:37:51.016840,40.16782
2021-05-05 11:37:51.032460,39.28553
2021-05-05 11:37:51.048090,37.80157
2021-05-05 11:37:51.063710,35.86615
2021-05-05 11:37:51.079340,33.65887
2021-05-05 11:37:51.094970,31.3805
2021-05-05 11:37:51.110590,29.17768
2021-05-05 11:37:51.126220,27.10697
2021-05-05 11:37:51.141840,25.09569
2021-05-05 11:37:51.157470,22.99627
2021-05-05 11:37:51.173090,20.64284
2021-05-05 11:37:51.188720,17.91094
2021-05-05 11:37:51.204350,14.77681
2021-05-05 11:37:51.219970,11.32118
2021-05-05 11:37:51.235600,7.700159
2021-05-05 11:37:51.251220,4.0991
2021-05-05 11:37:51.266850,0.6515713
2021-05-05 11:37:51.282470,-2.603647
2021-05-05 11:37:51.298100,-5.781469
2021-05-05 11:37:51.313730,-9.086811
2021-05-05 11:37:51.329350,-12.75557
2021-05-05 11:37:51.344980,-16.90292
2021-05-05 11:37:51.360600,-21.43089
2021-05-05 11:37:51.376230,-25.96877
2021-05-05 11:37:51.391850,-29.95607
2021-05-05 11:37:51.407480,-32.75728
2021-05-05 11:37:51.423110,-33.81023
2021-05-05 11:37:51.438730,-32.76551
2021-05-05 11:37:51.454360,-29.52936
2021-05-05 11:37:51.469980,-24.32682
2021-05-05 11:37:51.485610,-17.66648
2021-05-05 11:37:51.501240,-10.25418
2021-05-05 11:37:51.516860,-2.907536
2021-05-05 11:37:51.532490,3.610868
2021-05-05 11:37:51.548110,8.729519
2021-05-05 11:37:51.563740,12.18759
2021-05-05 11:37:51.579360,14.0342
2021-05-05 11:37:51.594990,14.56616
2021-05-05 11:37:51.610620,14.20017
2021-05-05 11:37:51.626240,13.37046
2021-05-05 11:37:51.641870,12.41878
2021-05-05 11:37:51.657490,11.58731
2021-05-05 11:37:51.673120,10.98642
2021-05-05 11:37:51.688740,10.61523
2021-05-05 11:37:51.704370,10.38784
2021-05-05 11:37:51.720000,10.17459
2021-05-05 11:37:51.735620,9.857212
2021-05-05 11:37:51.751250,9.365868
2021-05-05 11:37:51.766870,8.725681
2021-05-05 11:37:51.782500,7.999401
2021-05-05 11:37:51.798120,7.255547
2021-05-05 11:37:51.813750,6.491283
2021-05-05 11:37:51.829380,5.614468
2021-05-05 11:37:51.845000,4.479427
2021-05-05 11:37:51.860630,2.955132
2021-05-05 11:37:51.876250,0.9831619
2021-05-05 11:37:51.891880,-1.379826
2021-05-05 11:37:51.907500,-3.982273
2021-05-05 11:37:51.923130,-6.640884
2021-05-05 11:37:51.938760,-9.160442
2021-05-05 11:37:51.954380,-11.40715
2021-05-05 11:37:51.970010,-13.33308
2021-05-05 11:37:51.985630,-15.01948
2021-05-05 11:37:52.001260,-16.67448
2021-05-05 11:37:52.016880,-18.54699
2021-05-05 11:37:52.032510,-20.79491
2021-05-05 11:37:52.048140,-23.35906
2021-05-05 11:37:52.063760,-25.87602
2021-05-05 11:37:52.079390,-27.74885
2021-05-05 11:37:52.095010,-28.31359
2021-05-05 11:37:52.110640,-27.07787
2021-05-05 11:37:52.126260,-23.88699
2021-05-05 11:37:52.141890,-18.99615
2021-05-05 11:37:52.157520,-12.96529
2021-05-05 11:37:52.173140,-6.483421
2021-05-05 11:37:52.188770,-0.1950607
2021-05-05 11:37:52.204390,5.4105
2021-05-05 11:37:52.220020,10.05009
2021-05-05 11:37:52.235640,13.58598
2021-05-05 11:37:52.251270,15.96559
2021-05-05 11:37:52.266900,17.1941
2021-05-05 11:37:52.282520,17.30943
2021-05-05 11:37:52.298150,16.43648
2021-05-05 11:37:52.313770,14.85182
2021-05-05 11:37:52.329400,13.01387
2021-05-05 11:37:52.345020,11.4936
2021-05-05 11:37:52.360650,10.84016
2021-05-05 11:37:52.376280,11.3857
2021-05-05 11:37:52.391900,13.12825
2021-05-05 11:37:52.407530,15.72229
2021-05-05 11:37:52.423150,18.57318
2021-05-05 11:37:52.438780,21.05341
2021-05-05 11:37:52.454400,22.63203
2021-05-05 11:37:52.470030,22.99642
2021-05-05 11:37:52.485660,22.0673
2021-05-05 11:37:52.501280,19.94512
2021-05-05 11:37:52.516910,16.85612
2021-05-05 11:37:52.532530,13.08925
2021-05-05 11:37:52.548160,8.944046
2021-05-05 11:37:52.563780,4.678421
2021-05-05 11:37:52.579410,0.4954758
2021-05-05 11:37:52.595040,-3.51815
2021-05-05 11:37:52.610660,-7.396988
2021-05-05 11:37:52.626290,-11.28638
2021-05-05 11:37:52.641910,-15.4153
2021-05-05 11:37:52.657540,-19.97638
2021-05-05 11:37:52.673160,-24.99688
2021-05-05 11:37:52.688790,-30.2111
2021-05-05 11:37:52.704420,-35.04271
2021-05-05 11:37:52.720040,-38.6771
2021-05-05 11:37:52.735670,-40.32336
2021-05-05 11:37:52.751290,-39.43454
2021-05-05 11:37:52.766920,-35.92908
2021-05-05 11:37:52.782540,-30.22573
2021-05-05 11:37:52.798170,-23.11754
2021-05-05 11:37:52.813800,-15.54105
2021-05-05 11:37:52.829420,-8.342438
2021-05-05 11:37:52.845050,-2.122879
2021-05-05 11:37:52.860670,2.844818
2021-05-05 11:37:52.876300,6.565033
2021-05-05 11:37:52.891920,9.247086
2021-05-05 11:37:52.907550,11.1729
2021-05-05 11:37:52.923180,12.61607
2021-05-05 11:37:52.938800,13.75104
2021-05-05 11:37:52.954430,14.64362
2021-05-05 11:37:52.970050,15.26364
2021-05-05 11:37:52.985680,15.52155
2021-05-05 11:37:53.001300,15.33151
2021-05-05 11:37:53.016930,14.65327
2021-05-05 11:37:53.032560,13.55379
2021-05-05 11:37:53.048180,12.20573
2021-05-05 11:37:53.063810,10.84146
2021-05-05 11:37:53.079430,9.66687
2021-05-05 11:37:53.095060,8.761749
2021-05-05 11:37:53.110680,8.034897
2021-05-05 11:37:53.126310,7.268997
2021-05-05 11:37:53.141940,6.203033
2021-05-05 11:37:53.157560,4.6521
2021-05-05 11:37:53.173190,2.583389
2021-05-05 11:37:53.188810,0.1022186
2021-05-05 11:37:53.204440,-2.57309
2021-05-05 11:37:53.220060,-5.156006
2021-05-05 11:37:53.235690,-7.352539
2021-05-05 11:37:53.251320,-8.876968
2021-05-05 11:37:53.266940,-9.50235
2021-05-05 11:37:53.282570,-9.189499
2021-05-05 11:37:53.298190,-8.14621
2021-05-05 11:37:53.313820,-6.808273
2021-05-05 11:37:53.329440,-5.657623
2021-05-05 11:37:53.345070,-4.956131
2021-05-05 11:37:53.360700,-4.544113
2021-05-05 11:37:53.376320,-3.844742
2021-05-05 11:37:53.391950,-2.154861
2021-05-05 11:37:53.407570,0.980545
2021-05-05 11:37:53.423200,5.472885
2021-05-05 11:37:53.438820,10.65813
2021-05-05 11:37:53.454450,15.57376
2021-05-05 11:37:53.470080,19.37488
2021-05-05 11:37:53.485700,21.67175
2021-05-05 11:37:53.501330,22.63513
2021-05-05 11:37:53.516950,22.79646
2021-05-05 11:37:53.532580,22.74939
2021-05-05 11:37:53.548200,22.86905
2021-05-05 11:37:53.563830,23.21132
2021-05-05 11:37:53.579460,23.58791
2021-05-05 11:37:53.595080,23.72783
2021-05-05 11:37:53.610710,23.42374
2021-05-05 11:37:53.626330,22.58015
2021-05-05 11:37:53.641960,21.21451
2021-05-05 11:37:53.657580,19.40738
2021-05-05 11:37:53.673210,17.28551
2021-05-05 11:37:53.688840,14.9594
2021-05-05 11:37:53.704460,12.49765
2021-05-05 11:37:53.720090,9.909805
2021-05-05 11:37:53.735710,7.138367
2021-05-05 11:37:53.751340,4.095657
2021-05-05 11:37:53.766960,0.7261353
2021-05-05 11:37:53.782590,-2.946899
2021-05-05 11:37:53.798220,-6.816757
2021-05-05 11:37:53.829470,-14.56233
2021-05-05 11:37:53.845090,-18.24504
2021-05-05 11:37:53.860720,-21.8295
2021-05-05 11:37:53.876340,-25.45377
2021-05-05 11:37:53.891970,-29.27594
2021-05-05 11:37:53.907600,-33.40314
2021-05-05 11:37:53.923220,-37.75819
2021-05-05 11:37:53.938850,-42.01501
2021-05-05 11:37:53.954470,-45.61078
2021-05-05 11:37:53.970100,-47.82108
2021-05-05 11:37:53.985720,-47.93781
2021-05-05 11:37:54.001350,-45.47452
2021-05-05 11:37:54.016980,-40.3239
2021-05-05 11:37:54.032600,-32.80229
2021-05-05 11:37:54.048230,-23.56467
2021-05-05 11:37:54.063850,-13.43054
2021-05-05 11:37:54.079480,-3.220474
2021-05-05 11:37:54.095100,6.37468
2021-05-05 11:37:54.110730,14.85313
2021-05-05 11:37:54.126360,21.88194
2021-05-05 11:37:54.141980,27.29503
2021-05-05 11:37:54.157610,31.08159
2021-05-05 11:37:54.173230,33.39317
2021-05-05 11:37:54.188860,34.50568
2021-05-05 11:37:54.204490,34.79755
2021-05-05 11:37:54.220110,34.62907
2021-05-05 11:37:54.235740,34.28883
2021-05-05 11:37:54.251360,33.93564
2021-05-05 11:37:54.266990,33.60147
2021-05-05 11:37:54.282610,33.23903
2021-05-05 11:37:54.298240,32.78986
2021-05-05 11:37:54.313870,32.24733
2021-05-05 11:37:54.329490,31.69666
2021-05-05 11:37:54.345120,31.32239
2021-05-05 11:37:54.360740,31.3716
2021-05-05 11:37:54.376370,32.0891
2021-05-05 11:37:54.391990,33.67915
2021-05-05 11:37:54.407620,36.20804
2021-05-05 11:37:54.423250,39.58896
2021-05-05 11:37:54.438870,43.5358
2021-05-05 11:37:54.454500,47.57599
2021-05-05 11:37:54.470120,51.11153
2021-05-05 11:37:54.485750,53.54198
2021-05-05 11:37:54.501370,54.4016
2021-05-05 11:37:54.517000,53.50374
2021-05-05 11:37:54.532630,50.93529
2021-05-05 11:37:54.548250,46.99689
2021-05-05 11:37:54.563880,42.04378
2021-05-05 11:37:54.579500,36.35696
2021-05-05 11:37:54.595130,30.08228
2021-05-05 11:37:54.610750,23.36775
2021-05-05 11:37:54.626380,16.4808
2021-05-05 11:37:54.642010,9.92804
2021-05-05 11:37:54.657630,4.401489
2021-05-05 11:37:54.673260,0.5660248
2021-05-05 11:37:54.688880,-1.208832
2021-05-05 11:37:54.704510,-0.9771729
2021-05-05 11:37:54.720130,0.7866364
2021-05-05 11:37:54.735760,3.379456
2021-05-05 11:37:54.751390,6.101151
2021-05-05 11:37:54.767010,8.437897
2021-05-05 11:37:54.782640,10.11588
2021-05-05 11:37:54.798260,11.06973
2021-05-05 11:37:54.813890,11.37172
2021-05-05 11:37:54.829510,11.17319
2021-05-05 11:37:54.845140,10.67406
2021-05-05 11:37:54.860770,10.10533
2021-05-05 11:37:54.876390,9.641418
2021-05-05 11:37:54.892020,9.380264
2021-05-05 11:37:54.907640,9.293381
2021-05-05 11:37:54.923270,9.243591
2021-05-05 11:37:54.938890,9.061005
2021-05-05 11:37:54.954520,8.615128
2021-05-05 11:37:54.970150,7.861023
2021-05-05 11:37:54.985770,6.851349
2021-05-05 11:37:55.001400,5.682419
2021-05-05 11:37:55.017020,4.479645
2021-05-05 11:37:55.032650,3.313904
2021-05-05 11:37:55.048270,2.200928
2021-05-05 11:37:55.063900,1.096436
2021-05-05 11:37:55.079530,-0.07038879
2021-05-05 11:37:55.095150,-1.378174
2021-05-05 11:37:55.110780,-2.826805
2021-05-05 11:37:55.126400,-4.367958
2021-05-05 11:37:55.142030,-5.922546
2021-05-05 11:37:55.157650,-7.457809
2021-05-05 11:37:55.173280,-9.001671
2021-05-05 11:37:55.188910,-10.64745
2021-05-05 11:37:55.204530,-12.43604
2021-05-05 11:37:55.220160,-14.33313
2021-05-05 11:37:55.235780,-16.21555
2021-05-05 11:37:55.251410,-17.94245
2021-05-05 11:37:55.267030,-19.4459
2021-05-05 11:37:55.282660,-20.70026
2021-05-05 11:37:55.298290,-21.60995
2021-05-05 11:37:55.313910,-21.8233
2021-05-05 11:37:55.329540,-20.6877
2021-05-05 11:37:55.345160,-17.37677
2021-05-05 11:37:55.360790,-11.19919
2021-05-05 11:37:55.376410,-1.988491
2021-05-05 11:37:55.392040,9.721306
2021-05-05 11:37:55.407670,22.78362
2021-05-05 11:37:55.423290,35.80748
2021-05-05 11:37:55.438920,47.63581
2021-05-05 11:37:55.454540,57.69396
2021-05-05 11:37:55.470170,66.05941
2021-05-05 11:37:55.485790,73.23928
2021-05-05 11:37:55.501420,79.82067
2021-05-05 11:37:55.517050,86.17989
2021-05-05 11:37:55.532670,92.33467
2021-05-05 11:37:55.548300,98.0117
2021-05-05 11:37:55.563920,102.8149
2021-05-05 11:37:55.579550,106.3489
2021-05-05 11:37:55.595170,108.2631
2021-05-05 11:37:55.610800,108.2632
2021-05-05 11:37:55.626430,106.0928
2021-05-05 11:37:55.642050,101.5957
2021-05-05 11:37:55.657680,94.71005
2021-05-05 11:37:55.673300,85.3785
2021-05-05 11:37:55.688930,73.3364
2021-05-05 11:37:55.704550,57.94769
2021-05-05 11:37:55.720180,38.31453
2021-05-05 11:37:55.735810,13.77512
2021-05-05 11:37:55.751430,-15.36432
2021-05-05 11:37:55.767060,-47.25793
2021-05-05 11:37:55.782680,-78.60422
2021-05-05 11:37:55.798310,-105.4265
2021-05-05 11:37:55.813930,-124.3765
2021-05-05 11:37:55.829560,-133.9107
2021-05-05 11:37:55.845190,-134.8534
2021-05-05 11:37:55.860810,-130.156
2021-05-05 11:37:55.876440,-123.9696
2021-05-05 11:37:55.892060,-120.5036
2021-05-05 11:37:55.907690,-122.9654
2021-05-05 11:37:55.923310,-132.8044
2021-05-05 11:37:55.938940,-149.2851
2021-05-05 11:37:55.954570,-169.3274
2021-05-05 11:37:55.970190,-187.9355
2021-05-05 11:37:55.985820,-199.3278
2021-05-05 11:37:56.001440,-198.6437
2021-05-05 11:37:56.017070,-183.7905
2021-05-05 11:37:56.032690,-156.473
2021-05-05 11:37:56.048320,-121.8119
2021-05-05 11:37:56.063950,-86.57681
2021-05-05 11:37:56.079570,-56.69136
2021-05-05 11:37:56.095200,-35.27936
2021-05-05 11:37:56.110820,-22.06293
2021-05-05 11:37:56.126450,-14.32088
2021-05-05 11:37:56.157700,-3.385849
2021-05-05 11:37:56.173330,2.046173
2021-05-05 11:37:56.188950,6.397888
2021-05-05 11:37:56.204580,8.61853
2021-05-05 11:37:56.220200,8.819717
2021-05-05 11:37:56.235830,8.425812
2021-05-05 11:37:56.251450,9.250412
2021-05-05 11:37:56.267080,12.19736
2021-05-05 11:37:56.282710,16.40706
2021-05-05 11:37:56.298330,19.56055
2021-05-05 11:37:56.313960,19.14229
2021-05-05 11:37:56.329580,14.00047
2021-05-05 11:37:56.345210,5.189255
2021-05-05 11:37:56.360840,-4.38002
2021-05-05 11:37:56.376460,-11.30351
2021-05-05 11:37:56.392090,-13.39848
2021-05-05 11:37:56.407710,-10.63588
2021-05-05 11:37:56.423340,-5.006302
2021-05-05 11:37:56.438960,0.5714417
2021-05-05 11:37:56.454590,3.631943
2021-05-05 11:37:56.470220,3.067398
2021-05-05 11:37:56.485840,-0.7812958
2021-05-05 11:37:56.501470,-6.609665
2021-05-05 11:37:56.517090,-12.95879
2021-05-05 11:37:56.532720,-18.84909
2021-05-05 11:37:56.548340,-23.89487
2021-05-05 11:37:56.563970,-28.21886
2021-05-05 11:37:56.579600,-32.00658
2021-05-05 11:37:56.595220,-35.20447
2021-05-05 11:37:56.610850,-37.37816
2021-05-05 11:37:56.626470,-37.81711
2021-05-05 11:37:56.642100,-35.8593
2021-05-05 11:37:56.657720,-31.29254
2021-05-05 11:37:56.673350,-24.51848
2021-05-05 11:37:56.688980,-16.48093
2021-05-05 11:37:56.704600,-8.282639
2021-05-05 11:37:56.720230,-0.7796783
2021-05-05 11:37:56.735850,5.721863
2021-05-05 11:37:56.751480,11.4519
2021-05-05 11:37:56.767100,16.91788
2021-05-05 11:37:56.782730,22.55211
2021-05-05 11:37:56.798360,28.44154
2021-05-05 11:37:56.813980,34.23839
2021-05-05 11:37:56.829610,39.3044
2021-05-05 11:37:56.845230,42.88188
2021-05-05 11:37:56.860860,44.4216
2021-05-05 11:37:56.876480,43.8172
2021-05-05 11:37:56.892110,41.50093
2021-05-05 11:37:56.907740,38.35994
2021-05-05 11:37:56.923360,35.43311
2021-05-05 11:37:56.938990,33.5103
2021-05-05 11:37:56.954610,32.83264
2021-05-05 11:37:56.970240,33.02933
2021-05-05 11:37:56.985860,33.33432
2021-05-05 11:37:57.001490,33.01744
2021-05-05 11:37:57.017120,31.71083
2021-05-05 11:37:57.032740,29.55586
2021-05-05 11:37:57.048370,27.06487
2021-05-05 11:37:57.063990,24.83545
2021-05-05 11:37:57.079620,23.2733
2021-05-05 11:37:57.095240,22.4612
2021-05-05 11:37:57.110870,22.1817
2021-05-05 11:37:57.126500,22.03719
2021-05-05 11:37:57.142120,21.59296
2021-05-05 11:37:57.157750,20.4697
2021-05-05 11:37:57.173370,18.39781
2021-05-05 11:37:57.189000,15.28545
2021-05-05 11:37:57.204620,11.26521
2021-05-05 11:37:57.220250,6.733826
2021-05-05 11:37:57.235880,2.236786
2021-05-05 11:37:57.251500,-1.732254
2021-05-05 11:37:57.267130,-4.993469
2021-05-05 11:37:57.282750,-7.836487
2021-05-05 11:37:57.298380,-10.94873
2021-05-05 11:37:57.329630,-20.13588
2021-05-05 11:37:57.345260,-25.50452
2021-05-05 11:37:57.360880,-29.35519
2021-05-05 11:37:57.376510,-29.47475
2021-05-05 11:37:57.392130,-24.04343
2021-05-05 11:37:57.407760,-12.49513
2021-05-05 11:37:57.423380,4.042786
2021-05-05 11:37:57.439010,23.01697
2021-05-05 11:37:57.454640,41.30144
2021-05-05 11:37:57.470260,56.2451
2021-05-05 11:37:57.485890,66.38028
2021-05-05 11:37:57.501510,71.54034
2021-05-05 11:37:57.517140,72.38945
2021-05-05 11:37:57.532760,69.79602
2021-05-05 11:37:57.548390,64.41583
2021-05-05 11:37:57.564020,56.63022
2021-05-05 11:37:57.579640,46.73708
2021-05-05 11:37:57.595270,35.16656
2021-05-05 11:37:57.610890,22.59004
2021-05-05 11:37:57.626520,9.856354
2021-05-05 11:37:57.642140,-2.13945
2021-05-05 11:37:57.657770,-12.48846
2021-05-05 11:37:57.673400,-20.31683
2021-05-05 11:37:57.689020,-24.92281
2021-05-05 11:37:57.704650,-26.0816
2021-05-05 11:37:57.720270,-24.29521
2021-05-05 11:37:57.735900,-20.95233
2021-05-05 11:37:57.751520,-18.00851
2021-05-05 11:37:57.767150,-17.27734
2021-05-05 11:37:57.782780,-19.70155
2021-05-05 11:37:57.798400,-24.95876
2021-05-05 11:37:57.814030,-31.60814
2021-05-05 11:37:57.829650,-37.75662
2021-05-05 11:37:57.845280,-41.84436
2021-05-05 11:37:57.860900,-43.20694
2021-05-05 11:37:57.876530,-42.1364
2021-05-05 11:37:57.892160,-39.48875
2021-05-05 11:37:57.907780,-36.14149
2021-05-05 11:37:57.923410,-32.56194
2021-05-05 11:37:57.939030,-28.78748
2021-05-05 11:37:57.954660,-24.79761
2021-05-05 11:37:57.970280,-20.97784
2021-05-05 11:37:57.985910,-18.36792
2021-05-05 11:37:58.001540,-18.38226
2021-05-05 11:37:58.017160,-22.18378
2021-05-05 11:37:58.032790,-29.9352
2021-05-05 11:37:58.048410,-40.42911
2021-05-05 11:37:58.064040,-51.33455
2021-05-05 11:37:58.079660,-59.98022
2021-05-05 11:37:58.095290,-64.30634
2021-05-05 11:37:58.110920,-63.455
2021-05-05 11:37:58.126540,-57.80013
2021-05-05 11:37:58.142170,-48.51361
2021-05-05 11:37:58.157790,-36.96063
2021-05-05 11:37:58.173420,-24.27469
2021-05-05 11:37:58.189040,-11.24825
2021-05-05 11:37:58.204670,1.517929
2021-05-05 11:37:58.220300,13.46678
2021-05-05 11:37:58.235920,24.00133
2021-05-05 11:37:58.251550,32.58211
2021-05-05 11:37:58.267170,38.94069
2021-05-05 11:37:58.282800,43.26785
2021-05-05 11:37:58.298420,46.16856
2021-05-05 11:37:58.314050,48.47876
2021-05-05 11:37:58.329680,50.91772
2021-05-05 11:37:58.345300,53.76067
2021-05-05 11:37:58.360930,56.76578
2021-05-05 11:37:58.376550,59.32562
2021-05-05 11:37:58.392180,60.87695
2021-05-05 11:37:58.407800,61.22549
2021-05-05 11:37:58.423430,60.70068
2021-05-05 11:37:58.454680,59.69269
2021-05-05 11:37:58.470310,60.08121
2021-05-05 11:37:58.485930,60.79997
2021-05-05 11:37:58.501560,61.10866
2021-05-05 11:37:58.517180,60.16386
2021-05-05 11:37:58.532810,57.39812
2021-05-05 11:37:58.548440,52.66542
2021-05-05 11:37:58.564060,46.21049
2021-05-05 11:37:58.579690,38.50163
2021-05-05 11:37:58.595310,30.05762
2021-05-05 11:37:58.610940,21.34097
2021-05-05 11:37:58.626560,12.71979
2021-05-05 11:37:58.642190,4.476105
2021-05-05 11:37:58.657820,-3.172791
2021-05-05 11:37:58.673440,-10.07527
2021-05-05 11:37:58.689070,-16.21568
2021-05-05 11:37:58.704690,-21.74307
2021-05-05 11:37:58.720320,-26.9718
2021-05-05 11:37:58.735940,-32.26364
2021-05-05 11:37:58.751570,-37.84085
2021-05-05 11:37:58.767200,-43.66196
2021-05-05 11:37:58.782820,-49.37878
2021-05-05 11:37:58.798450,-54.45212
2021-05-05 11:37:58.814070,-58.31589
2021-05-05 11:37:58.829700,-60.54874
2021-05-05 11:37:58.845320,-60.95514
2021-05-05 11:37:58.860950,-59.52347
2021-05-05 11:37:58.876580,-56.42484
2021-05-05 11:37:58.892200,-51.98476
2021-05-05 11:37:58.907830,-46.65088
2021-05-05 11:37:58.923450,-40.96812
2021-05-05 11:37:58.939080,-35.45317
2021-05-05 11:37:58.954710,-30.49118
2021-05-05 11:37:58.970330,-26.27222
2021-05-05 11:37:58.985960,-22.77197
2021-05-05 11:37:59.001580,-19.83214
2021-05-05 11:37:59.017210,-17.23256
2021-05-05 11:37:59.032830,-14.74896
2021-05-05 11:37:59.048460,-12.13828
2021-05-05 11:37:59.064090,-9.159439
2021-05-05 11:37:59.079710,-5.567551
2021-05-05 11:37:59.095340,-1.248169
2021-05-05 11:37:59.110960,3.718155
2021-05-05 11:37:59.126590,9.008148
2021-05-05 11:37:59.142210,14.13208
2021-05-05 11:37:59.157840,18.55902
2021-05-05 11:37:59.173470,21.88992
2021-05-05 11:37:59.189090,23.9883
2021-05-05 11:37:59.204720,24.98073
2021-05-05 11:37:59.220340,25.26521
2021-05-05 11:37:59.235970,25.31833
2021-05-05 11:37:59.251590,25.56371
2021-05-05 11:37:59.267220,26.21204
2021-05-05 11:37:59.282850,27.1814
2021-05-05 11:37:59.298470,28.15437
2021-05-05 11:37:59.314100,28.70958
2021-05-05 11:37:59.329720,28.53651
2021-05-05 11:37:59.345350,27.52129
2021-05-05 11:37:59.360970,25.79976
2021-05-05 11:37:59.376600,23.63969
2021-05-05 11:37:59.392230,21.31168
2021-05-05 11:37:59.407850,18.9902
2021-05-05 11:37:59.423480,16.75842
2021-05-05 11:37:59.439100,14.69174
2021-05-05 11:37:59.454730,12.86932
2021-05-05 11:37:59.470350,11.31854
2021-05-05 11:37:59.485980,9.857544
2021-05-05 11:37:59.501610,8.034119
2021-05-05 11:37:59.517230,5.259491
2021-05-05 11:37:59.532860,1.120636
2021-05-05 11:37:59.548480,-4.225952
2021-05-05 11:37:59.564110,-9.910156
2021-05-05 11:37:59.579730,-14.51724
2021-05-05 11:37:59.595360,-16.68716
2021-05-05 11:37:59.610990,-15.73792
2021-05-05 11:37:59.626610,-12.07123
2021-05-05 11:37:59.642240,-7.023193
2021-05-05 11:37:59.657860,-2.348755
2021-05-05 11:37:59.673490,0.5180969
2021-05-05 11:37:59.689110,0.9969482
2021-05-05 11:37:59.704740,-0.6677856
2021-05-05 11:37:59.720370,-3.584442
2021-05-05 11:37:59.735990,-6.68811
2021-05-05 11:37:59.751620,-9.076385
2021-05-05 11:37:59.767240,-10.09979
2021-05-05 11:37:59.782870,-9.351166
2021-05-05 11:37:59.798490,-6.728333
2021-05-05 11:37:59.814120,-2.671692
2021-05-05 11:37:59.829750,1.65332
2021-05-05 11:37:59.845370,4.440338
2021-05-05 11:37:59.861000,3.861206
2021-05-05 11:37:59.876620,-1.05011
2021-05-05 11:37:59.892250,-9.737122
2021-05-05 11:37:59.907870,-20.15576
2021-05-05 11:37:59.923500,-29.60172
2021-05-05 11:37:59.939130,-35.90115
2021-05-05 11:37:59.954750,-38.32358
2021-05-05 11:37:59.970380,-37.64447
2021-05-05 11:37:59.986000,-35.47675
2021-05-05 11:38:00.001630,-33.2695
2021-05-05 11:38:00.017250,-31.66617
2021-05-05 11:38:00.032880,-30.49548
2021-05-05 11:38:00.048510,-29.31375
2021-05-05 11:38:00.064130,-28.00085
2021-05-05 11:38:00.079760,-26.93591
2021-05-05 11:38:00.095380,-26.71646
2021-05-05 11:38:00.111010,-27.6488
2021-05-05 11:38:00.126630,-29.45901
2021-05-05 11:38:00.142260,-31.40036
2021-05-05 11:38:00.157890,-32.71704
2021-05-05 11:38:00.173510,-33.08676
2021-05-05 11:38:00.189140,-32.72205
2021-05-05 11:38:00.204760,-32.33478
2021-05-05 11:38:00.220390,-32.70807
2021-05-05 11:38:00.236010,-34.29907
2021-05-05 11:38:00.251640,-36.98456
2021-05-05 11:38:00.267270,-40.04001
2021-05-05 11:38:00.282890,-42.32727
2021-05-05 11:38:00.298520,-42.66043
2021-05-05 11:38:00.314140,-40.1666
2021-05-05 11:38:00.329770,-34.56589
2021-05-05 11:38:00.345390,-26.26718
2021-05-05 11:38:00.361020,-16.25787
2021-05-05 11:38:00.376650,-5.788483
2021-05-05 11:38:00.392270,3.946381
2021-05-05 11:38:00.407900,12.10583
2021-05-05 11:38:00.423520,18.34811
2021-05-05 11:38:00.439150,22.78625
2021-05-05 11:38:00.454770,25.80905
2021-05-05 11:38:00.470400,27.84622
2021-05-05 11:38:00.486030,29.19476
2021-05-05 11:38:00.501650,29.98172
2021-05-05 11:38:00.517280,30.21033
2021-05-05 11:38:00.532900,29.92297
2021-05-05 11:38:00.548530,29.2585
2021-05-05 11:38:00.564150,28.42058
2021-05-05 11:38:00.579780,27.57417
2021-05-05 11:38:00.595410,26.73601
2021-05-05 11:38:00.611030,25.72316
2021-05-05 11:38:00.626660,24.25856
2021-05-05 11:38:00.642280,22.10632
2021-05-05 11:38:00.657910,19.26071
2021-05-05 11:38:00.689160,12.62683
2021-05-05 11:38:00.704790,9.741837
2021-05-05 11:38:00.720410,7.606201
2021-05-05 11:38:00.736040,6.283966
2021-05-05 11:38:00.751660,5.597565
2021-05-05 11:38:00.767290,5.24086
2021-05-05 11:38:00.782910,4.925812
2021-05-05 11:38:00.798540,4.481262
2021-05-05 11:38:00.814170,3.873825
2021-05-05 11:38:00.829790,3.218979
2021-05-05 11:38:00.845420,2.731598
2021-05-05 11:38:00.861040,2.671631
2021-05-05 11:38:00.876670,3.297546
2021-05-05 11:38:00.892290,4.74585
2021-05-05 11:38:00.907920,6.962982
2021-05-05 11:38:00.923550,9.595764
2021-05-05 11:38:00.939170,12.04396
2021-05-05 11:38:00.954800,13.59821
2021-05-05 11:38:00.970420,13.74081
2021-05-05 11:38:00.986050,12.38567
2021-05-05 11:38:01.001670,9.973495
2021-05-05 11:38:01.017300,7.245071
2021-05-05 11:38:01.032930,4.919846
2021-05-05 11:38:01.048550,3.376984
2021-05-05 11:38:01.064180,2.561417
2021-05-05 11:38:01.079800,2.078323
2021-05-05 11:38:01.095430,1.432907
2021-05-05 11:38:01.111050,0.1838379
2021-05-05 11:38:01.126680,-1.956375
2021-05-05 11:38:01.142310,-5.12944
2021-05-05 11:38:01.157930,-9.240479
2021-05-05 11:38:01.173560,-13.95944
2021-05-05 11:38:01.189180,-18.65097
2021-05-05 11:38:01.204810,-22.49278
2021-05-05 11:38:01.220440,-24.69312
2021-05-05 11:38:01.236060,-24.76433
2021-05-05 11:38:01.251690,-22.72266
2021-05-05 11:38:01.267310,-19.08232
2021-05-05 11:38:01.282940,-14.66571
2021-05-05 11:38:01.298560,-10.32854
2021-05-05 11:38:01.314190,-6.760223
2021-05-05 11:38:01.329820,-4.412018
2021-05-05 11:38:01.345440,-3.486908
2021-05-05 11:38:01.361070,-3.939209
2021-05-05 11:38:01.376690,-5.430176
2021-05-05 11:38:01.392320,-7.388855
2021-05-05 11:38:01.407940,-9.110291
2021-05-05 11:38:01.423570,-10.03815
2021-05-05 11:38:01.439200,-9.977509
2021-05-05 11:38:01.454820,-9.201614
2021-05-05 11:38:01.470450,-8.348953
2021-05-05 11:38:01.486070,-8.172119
2021-05-05 11:38:01.501700,-9.223923
2021-05-05 11:38:01.517320,-11.66409
2021-05-05 11:38:01.532950,-15.22278
2021-05-05 11:38:01.548580,-19.3439
2021-05-05 11:38:01.564200,-23.36635
2021-05-05 11:38:01.579830,-26.78215
2021-05-05 11:38:01.595450,-29.32391
2021-05-05 11:38:01.611080,-31.0498
2021-05-05 11:38:01.626700,-32.22403
2021-05-05 11:38:01.642330,-33.2403
2021-05-05 11:38:01.657960,-34.3875
2021-05-05 11:38:01.673580,-35.72224
2021-05-05 11:38:01.689210,-36.93118
2021-05-05 11:38:01.704830,-37.3781
2021-05-05 11:38:01.720460,-36.29234
2021-05-05 11:38:01.736080,-33.0466
2021-05-05 11:38:01.751710,-27.39052
2021-05-05 11:38:01.767340,-19.604
2021-05-05 11:38:01.782960,-10.41354
2021-05-05 11:38:01.798590,-0.8014069
2021-05-05 11:38:01.814210,8.283302
2021-05-05 11:38:01.829840,16.14563
2021-05-05 11:38:01.845460,22.48093
2021-05-05 11:38:01.861090,27.34879
2021-05-05 11:38:01.876720,31.04501
2021-05-05 11:38:01.907970,36.24805
2021-05-05 11:38:01.923590,38.16225
2021-05-05 11:38:01.939220,39.72557
2021-05-05 11:38:01.954840,40.95905
2021-05-05 11:38:01.970470,41.95523
2021-05-05 11:38:01.986100,42.81678
2021-05-05 11:38:02.001720,43.5898
2021-05-05 11:38:02.017350,44.17289
2021-05-05 11:38:02.032970,44.33553
2021-05-05 11:38:02.048600,43.80495
2021-05-05 11:38:02.064220,42.4603
2021-05-05 11:38:02.079850,40.47384
2021-05-05 11:38:02.095480,38.26965
2021-05-05 11:38:02.111100,36.37745
2021-05-05 11:38:02.126730,35.17339
2021-05-05 11:38:02.142350,34.69724
2021-05-05 11:38:02.157980,34.66764
2021-05-05 11:38:02.173600,34.60794
2021-05-05 11:38:02.189230,34.08477
2021-05-05 11:38:02.204860,32.83473
2021-05-05 11:38:02.220480,30.84274
2021-05-05 11:38:02.236110,28.24276
2021-05-05 11:38:02.251730,25.21439
2021-05-05 11:38:02.267360,21.86505
2021-05-05 11:38:02.282980,18.22227
2021-05-05 11:38:02.298610,14.22921
2021-05-05 11:38:02.314240,9.80743
2021-05-05 11:38:02.329860,4.847935
2021-05-05 11:38:02.345490,-0.746769
2021-05-05 11:38:02.361110,-6.989548
2021-05-05 11:38:02.376740,-13.77174
2021-05-05 11:38:02.392360,-20.75029
2021-05-05 11:38:02.407990,-27.33915
2021-05-05 11:38:02.423620,-32.80408
2021-05-05 11:38:02.439240,-36.41117
2021-05-05 11:38:02.454870,-37.67906
2021-05-05 11:38:02.470490,-36.5235
2021-05-05 11:38:02.486120,-33.32932
2021-05-05 11:38:02.501740,-28.80578
2021-05-05 11:38:02.517370,-23.79114
2021-05-05 11:38:02.533000,-18.98864
2021-05-05 11:38:02.548620,-14.86084
2021-05-05 11:38:02.564250,-11.60156
2021-05-05 11:38:02.579870,-9.248478
2021-05-05 11:38:02.595500,-7.778698
2021-05-05 11:38:02.611120,-7.174839
2021-05-05 11:38:02.626750,-7.428822
2021-05-05 11:38:02.642380,-8.487873
2021-05-05 11:38:02.658000,-10.22508
2021-05-05 11:38:02.673630,-12.46048
2021-05-05 11:38:02.689250,-14.97938
2021-05-05 11:38:02.704880,-17.59196
2021-05-05 11:38:02.720500,-20.10746
2021-05-05 11:38:02.736130,-22.31816
2021-05-05 11:38:02.751760,-23.96466
2021-05-05 11:38:02.767380,-24.80185
2021-05-05 11:38:02.783010,-24.65128
2021-05-05 11:38:02.798630,-23.53286
2021-05-05 11:38:02.814260,-21.66934
2021-05-05 11:38:02.829880,-19.4651
2021-05-05 11:38:02.845510,-17.39094
2021-05-05 11:38:02.861140,-15.87476
2021-05-05 11:38:02.876760,-15.23828
2021-05-05 11:38:02.892390,-15.6377
2021-05-05 11:38:02.908010,-17.08312
2021-05-05 11:38:02.923640,-19.42985
2021-05-05 11:38:02.939260,-22.40551
2021-05-05 11:38:02.954890,-25.67113
2021-05-05 11:38:02.970520,-28.85879
2021-05-05 11:38:02.986140,-31.69055
2021-05-05 11:38:03.001770,-34.00299
2021-05-05 11:38:03.017390,-35.81855
2021-05-05 11:38:03.033020,-37.30462
2021-05-05 11:38:03.048640,-38.71313
2021-05-05 11:38:03.064270,-40.29896
2021-05-05 11:38:03.079900,-42.25878
2021-05-05 11:38:03.095520,-44.6108
2021-05-05 11:38:03.111150,-47.15441
2021-05-05 11:38:03.126770,-49.41866
2021-05-05 11:38:03.142400,-50.7145
2021-05-05 11:38:03.158020,-50.29218
2021-05-05 11:38:03.173650,-47.55917
2021-05-05 11:38:03.189280,-42.29045
2021-05-05 11:38:03.204900,-34.76884
2021-05-05 11:38:03.220530,-25.70316
2021-05-05 11:38:03.236150,-16.06904
2021-05-05 11:38:03.251780,-6.82766
2021-05-05 11:38:03.267400,1.308525
2021-05-05 11:38:03.283030,8.016617
2021-05-05 11:38:03.298660,13.35281
2021-05-05 11:38:03.314280,17.62001
2021-05-05 11:38:03.329910,21.19023
2021-05-05 11:38:03.345530,24.35527
2021-05-05 11:38:03.361160,27.25948
2021-05-05 11:38:03.376780,29.90196
2021-05-05 11:38:03.392410,32.23624
2021-05-05 11:38:03.408040,34.2193
2021-05-05 11:38:03.423660,35.87451
2021-05-05 11:38:03.439290,37.28247
2021-05-05 11:38:03.454910,38.55925
2021-05-05 11:38:03.470540,39.78011
2021-05-05 11:38:03.486170,40.96097
2021-05-05 11:38:03.501790,42.0719
2021-05-05 11:38:03.517420,43.04446
2021-05-05 11:38:03.533040,43.8018
2021-05-05 11:38:03.548670,44.25273
2021-05-05 11:38:03.564290,44.29556
2021-05-05 11:38:03.579920,43.76765
2021-05-05 11:38:03.595550,42.4803
2021-05-05 11:38:03.611170,40.28918
2021-05-05 11:38:03.626800,37.15904
2021-05-05 11:38:03.642420,33.26367
2021-05-05 11:38:03.658050,28.94733
2021-05-05 11:38:03.673670,24.62726
2021-05-05 11:38:03.689300,20.62335
2021-05-05 11:38:03.704930,17.01164
2021-05-05 11:38:03.720550,13.59418
2021-05-05 11:38:03.736180,10.02823
2021-05-05 11:38:03.751800,6.048172
2021-05-05 11:38:03.767430,1.69635
2021-05-05 11:38:03.783050,-2.56839
2021-05-05 11:38:03.798680,-5.993393
2021-05-05 11:38:03.814310,-7.785553
2021-05-05 11:38:03.829930,-7.407028
2021-05-05 11:38:03.845560,-4.757111
2021-05-05 11:38:03.861180,-0.211731
2021-05-05 11:38:03.876810,5.547134
2021-05-05 11:38:03.892430,11.73465
2021-05-05 11:38:03.908060,17.64491
2021-05-05 11:38:03.923690,22.7627
2021-05-05 11:38:03.939310,26.76817
2021-05-05 11:38:03.954940,29.51151
2021-05-05 11:38:03.970560,30.97687
2021-05-05 11:38:03.986190,31.27853
2021-05-05 11:38:04.001810,30.62219
2021-05-05 11:38:04.017440,29.29129
2021-05-05 11:38:04.033070,27.59576
2021-05-05 11:38:04.048690,25.78711
2021-05-05 11:38:04.064320,24.04953
2021-05-05 11:38:04.079940,22.4437
2021-05-05 11:38:04.095570,20.92007
2021-05-05 11:38:04.111190,19.38461
2021-05-05 11:38:04.126820,17.74179
2021-05-05 11:38:04.142450,15.95105
2021-05-05 11:38:04.158070,14.01709
2021-05-05 11:38:04.173700,11.9881
2021-05-05 11:38:04.189320,9.871948
2021-05-05 11:38:04.204950,7.65686
2021-05-05 11:38:04.220570,5.300598
2021-05-05 11:38:04.251830,0.2411194
2021-05-05 11:38:04.267450,-2.263702
2021-05-05 11:38:04.283080,-4.610352
2021-05-05 11:38:04.298700,-6.808655
2021-05-05 11:38:04.314330,-9.019104
2021-05-05 11:38:04.329950,-11.50287
2021-05-05 11:38:04.345580,-14.51489
2021-05-05 11:38:04.361210,-18.20929
2021-05-05 11:38:04.376830,-22.5509
2021-05-05 11:38:04.392460,-27.27475
2021-05-05 11:38:04.408080,-31.93164
2021-05-05 11:38:04.423710,-35.89847
2021-05-05 11:38:04.439330,-38.48761
2021-05-05 11:38:04.454960,-39.04895
2021-05-05 11:38:04.470590,-37.17859
2021-05-05 11:38:04.486210,-32.85464
2021-05-05 11:38:04.501840,-26.51624
2021-05-05 11:38:04.517460,-18.97797
2021-05-05 11:38:04.533090,-11.20828
2021-05-05 11:38:04.548710,-4.083832
2021-05-05 11:38:04.564340,1.864166
2021-05-05 11:38:04.579970,6.49939
2021-05-05 11:38:04.595590,9.993073
2021-05-05 11:38:04.611220,12.66656
2021-05-05 11:38:04.626840,14.81726
2021-05-05 11:38:04.642470,16.66904
2021-05-05 11:38:04.658090,18.33389
2021-05-05 11:38:04.673720,19.9079
2021-05-05 11:38:04.689350,21.45676
2021-05-05 11:38:04.704970,23.02118
2021-05-05 11:38:04.720600,24.54001
2021-05-05 11:38:04.736220,25.82523
2021-05-05 11:38:04.751850,26.61752
2021-05-05 11:38:04.767470,26.7001
2021-05-05 11:38:04.783100,26.01791
2021-05-05 11:38:04.798730,24.76309
2021-05-05 11:38:04.814350,23.31839
2021-05-05 11:38:04.829980,22.11926
2021-05-05 11:38:04.845600,21.44824
2021-05-05 11:38:04.861230,21.29858
2021-05-05 11:38:04.876850,21.37827
2021-05-05 11:38:04.892480,21.23047
2021-05-05 11:38:04.908110,20.43704
2021-05-05 11:38:04.923730,18.79611
2021-05-05 11:38:04.939360,16.40756
2021-05-05 11:38:04.954980,13.60559
2021-05-05 11:38:04.970610,10.79749
2021-05-05 11:38:04.986230,8.307495
2021-05-05 11:38:05.001860,6.186401
2021-05-05 11:38:05.017490,4.253448
2021-05-05 11:38:05.033110,2.188385
2021-05-05 11:38:05.048740,-0.2859802
2021-05-05 11:38:05.064360,-3.223938
2021-05-05 11:38:05.079990,-6.390259
2021-05-05 11:38:05.095610,-9.325653
2021-05-05 11:38:05.111240,-11.42612
2021-05-05 11:38:05.126870,-12.07413
2021-05-05 11:38:05.142490,-10.7099
2021-05-05 11:38:05.158120,-6.982269
2021-05-05 11:38:05.173740,-0.9237061
2021-05-05 11:38:05.189370,6.81488
2021-05-05 11:38:05.204990,14.91165
2021-05-05 11:38:05.220620,21.5824
2021-05-05 11:38:05.236250,25.08109
2021-05-05 11:38:05.251870,24.33658
2021-05-05 11:38:05.267500,19.40805
2021-05-05 11:38:05.283120,11.44519
2021-05-05 11:38:05.298750,2.251678
2021-05-05 11:38:05.330000,-13.32083
2021-05-05 11:38:05.345630,-18.34531
2021-05-05 11:38:05.361250,-21.92545
2021-05-05 11:38:05.376880,-24.87164
2021-05-05 11:38:05.392500,-27.9379
2021-05-05 11:38:05.408130,-31.5864
2021-05-05 11:38:05.423750,-36.0336
2021-05-05 11:38:05.439380,-41.32953
2021-05-05 11:38:05.455010,-47.3707
2021-05-05 11:38:05.470630,-53.78976
2021-05-05 11:38:05.486260,-59.82141
2021-05-05 11:38:05.501880,-64.46204
2021-05-05 11:38:05.517510,-66.81757
2021-05-05 11:38:05.533130,-66.52481
2021-05-05 11:38:05.548760,-63.94827
2021-05-05 11:38:05.564390,-59.97321
2021-05-05 11:38:05.580010,-55.47943
2021-05-05 11:38:05.595640,-50.80783
2021-05-05 11:38:05.611260,-45.60803
2021-05-05 11:38:05.626890,-39.16162
2021-05-05 11:38:05.642510,-30.98053
2021-05-05 11:38:05.658140,-21.30762
2021-05-05 11:38:05.673770,-11.11105
2021-05-05 11:38:05.689390,-1.607025
2021-05-05 11:38:05.705020,6.387146
2021-05-05 11:38:05.720640,12.81335
2021-05-05 11:38:05.736270,18.25781
2021-05-05 11:38:05.751890,23.44058
2021-05-05 11:38:05.767520,28.71515
2021-05-05 11:38:05.783150,33.85703
2021-05-05 11:38:05.798770,38.24789
2021-05-05 11:38:05.814400,41.27512
2021-05-05 11:38:05.830020,42.60419
2021-05-05 11:38:05.845650,42.17426
2021-05-05 11:38:05.861270,40.15573
2021-05-05 11:38:05.876900,36.82043
2021-05-05 11:38:05.892530,32.55609
2021-05-05 11:38:05.908150,28.07425
2021-05-05 11:38:05.923780,24.51129
2021-05-05 11:38:05.939400,23.32013
2021-05-05 11:38:05.955030,25.86658
2021-05-05 11:38:05.970650,32.88028
2021-05-05 11:38:05.986280,44.04065
2021-05-05 11:38:06.001910,57.97028
2021-05-05 11:38:06.017530,72.57114
2021-05-05 11:38:06.033160,85.66022
2021-05-05 11:38:06.048780,95.52908
2021-05-05 11:38:06.064410,101.2429
2021-05-05 11:38:06.080040,102.6165
2021-05-05 11:38:06.095660,100.0267
2021-05-05 11:38:06.111290,94.21906
2021-05-05 11:38:06.126910,86.15817
2021-05-05 11:38:06.142540,76.97058
2021-05-05 11:38:06.158160,67.78436
2021-05-05 11:38:06.173790,59.44482
2021-05-05 11:38:06.189420,52.24966
2021-05-05 11:38:06.205040,45.8374
2021-05-05 11:38:06.220670,39.30591
2021-05-05 11:38:06.236290,31.6254
2021-05-05 11:38:06.251920,22.09833
2021-05-05 11:38:06.267540,10.73306
2021-05-05 11:38:06.283170,-1.723267
2021-05-05 11:38:06.298800,-14.05191
2021-05-05 11:38:06.314420,-25.02646
2021-05-05 11:38:06.330050,-33.82791
2021-05-05 11:38:06.345670,-40.28735
2021-05-05 11:38:06.361300,-44.84152
2021-05-05 11:38:06.376920,-48.23239
2021-05-05 11:38:06.392550,-51.18564
2021-05-05 11:38:06.408180,-54.10605
2021-05-05 11:38:06.423800,-56.99789
2021-05-05 11:38:06.439430,-59.53763
2021-05-05 11:38:06.455050,-61.26929
2021-05-05 11:38:06.470680,-61.78128
2021-05-05 11:38:06.486300,-60.87552
2021-05-05 11:38:06.501930,-58.6138
2021-05-05 11:38:06.517560,-55.29462
2021-05-05 11:38:06.533180,-51.3725
2021-05-05 11:38:06.564430,-43.56473
2021-05-05 11:38:06.580060,-40.41556
2021-05-05 11:38:06.595680,-38.11255
2021-05-05 11:38:06.611310,-36.84521
2021-05-05 11:38:06.626940,-36.74673
2021-05-05 11:38:06.642560,-37.78925
2021-05-05 11:38:06.658190,-39.58099
2021-05-05 11:38:06.673810,-41.27216
2021-05-05 11:38:06.689440,-41.63901
2021-05-05 11:38:06.705060,-39.43835
2021-05-05 11:38:06.720690,-33.89832
2021-05-05 11:38:06.736320,-25.08182
2021-05-05 11:38:06.751940,-13.98096
2021-05-05 11:38:06.767570,-2.174805
2021-05-05 11:38:06.783190,8.719604
2021-05-05 11:38:06.798820,17.59396
2021-05-05 11:38:06.814440,24.09872
2021-05-05 11:38:06.830070,28.56592
2021-05-05 11:38:06.845700,31.68851
2021-05-05 11:38:06.861320,34.14825
2021-05-05 11:38:06.876950,36.43469
2021-05-05 11:38:06.892570,38.80179
2021-05-05 11:38:06.908200,41.4003
2021-05-05 11:38:06.923820,44.35944
2021-05-05 11:38:06.939450,47.82739
2021-05-05 11:38:06.955080,51.85791
2021-05-05 11:38:06.970700,56.31128
2021-05-05 11:38:06.986330,60.81616
2021-05-05 11:38:07.001950,64.8288
2021-05-05 11:38:07.017580,67.88205
2021-05-05 11:38:07.033200,69.76791
2021-05-05 11:38:07.048830,70.67902
2021-05-05 11:38:07.064460,71.06354
2021-05-05 11:38:07.080080,71.36081
2021-05-05 11:38:07.095710,71.64349
2021-05-05 11:38:07.111330,71.49857
2021-05-05 11:38:07.126960,70.14838
2021-05-05 11:38:07.142580,66.81339
2021-05-05 11:38:07.158210,61.1105
2021-05-05 11:38:07.173840,53.28122
2021-05-05 11:38:07.189460,44.10458
2021-05-05 11:38:07.205090,34.57675
2021-05-05 11:38:07.220710,25.53036
2021-05-05 11:38:07.236340,17.41644
2021-05-05 11:38:07.251960,10.26843
2021-05-05 11:38:07.267590,3.891571
2021-05-05 11:38:07.283220,-1.982849
2021-05-05 11:38:07.298840,-7.57431
2021-05-05 11:38:07.314470,-13.07144
2021-05-05 11:38:07.330090,-18.6434
2021-05-05 11:38:07.345720,-24.41226
2021-05-05 11:38:07.361340,-30.32022
2021-05-05 11:38:07.376970,-36.0481
2021-05-05 11:38:07.392600,-40.99911
2021-05-05 11:38:07.408220,-44.44232
2021-05-05 11:38:07.423850,-45.75681
2021-05-05 11:38:07.439470,-44.66315
2021-05-05 11:38:07.455100,-41.36774
2021-05-05 11:38:07.470720,-36.52525
2021-05-05 11:38:07.486350,-31.04092
2021-05-05 11:38:07.501980,-25.81279
2021-05-05 11:38:07.517600,-21.48273
2021-05-05 11:38:07.533230,-18.31198
2021-05-05 11:38:07.548850,-16.18451
2021-05-05 11:38:07.564480,-14.80978
2021-05-05 11:38:07.580100,-13.88211
2021-05-05 11:38:07.595730,-13.25642
2021-05-05 11:38:07.611360,-12.937
2021-05-05 11:38:07.626980,-12.97525
2021-05-05 11:38:07.642610,-13.28358
2021-05-05 11:38:07.658230,-13.5896
2021-05-05 11:38:07.673860,-13.48529
2021-05-05 11:38:07.689480,-12.64377
2021-05-05 11:38:07.705110,-11.02173
2021-05-05 11:38:07.720740,-8.954285
2021-05-05 11:38:07.736360,-7.072021
2021-05-05 11:38:07.751990,-6.054611
2021-05-05 11:38:07.767610,-6.40152
2021-05-05 11:38:07.783240,-8.275085
2021-05-05 11:38:07.798860,-11.50923
2021-05-05 11:38:07.814490,-15.72278
2021-05-05 11:38:07.830120,-20.48019
2021-05-05 11:38:07.845740,-25.40622
2021-05-05 11:38:07.861370,-30.19502
2021-05-05 11:38:07.876990,-34.59567
2021-05-05 11:38:07.892620,-38.36505
2021-05-05 11:38:07.908240,-41.3105
2021-05-05 11:38:07.923870,-43.32074
2021-05-05 11:38:07.939500,-44.45834
2021-05-05 11:38:07.955120,-44.97676
2021-05-05 11:38:07.970750,-45.27534
2021-05-05 11:38:07.986370,-45.77339
2021-05-05 11:38:08.002000,-46.76624
2021-05-05 11:38:08.017620,-48.37247
2021-05-05 11:38:08.033250,-50.55141
2021-05-05 11:38:08.048880,-53.18526
2021-05-05 11:38:08.064500,-56.11491
2021-05-05 11:38:08.080130,-59.10287
2021-05-05 11:38:08.095750,-61.73201
2021-05-05 11:38:08.111380,-63.32463
2021-05-05 11:38:08.127000,-63.06168
2021-05-05 11:38:08.142630,-60.18056
2021-05-05 11:38:08.158260,-54.28242
2021-05-05 11:38:08.173880,-45.49776
2021-05-05 11:38:08.189510,-34.48117
2021-05-05 11:38:08.205130,-22.17491
2021-05-05 11:38:08.220760,-9.505234
2021-05-05 11:38:08.236380,2.812073
2021-05-05 11:38:08.252010,14.3414
2021-05-05 11:38:08.267640,24.83646
2021-05-05 11:38:08.283260,34.12605
2021-05-05 11:38:08.298890,42.05266
2021-05-05 11:38:08.314510,48.48444
2021-05-05 11:38:08.330140,53.39569
2021-05-05 11:38:08.345770,56.90073
2021-05-05 11:38:08.361390,59.24458
2021-05-05 11:38:08.377020,60.7247
2021-05-05 11:38:08.392640,61.62953
2021-05-05 11:38:08.408270,62.18402
2021-05-05 11:38:08.423890,62.54094
2021-05-05 11:38:08.439520,62.75537
2021-05-05 11:38:08.455150,62.80074
2021-05-05 11:38:08.470770,62.52061
2021-05-05 11:38:08.486400,61.6434
2021-05-05 11:38:08.502020,59.79472
2021-05-05 11:38:08.517650,56.58873
2021-05-05 11:38:08.533270,51.67389
2021-05-05 11:38:08.548900,44.77423
2021-05-05 11:38:08.564530,35.81326
2021-05-05 11:38:08.580150,25.04175
2021-05-05 11:38:08.595780,13.24472
2021-05-05 11:38:08.611400,1.784988
2021-05-05 11:38:08.627030,-7.583878
2021-05-05 11:38:08.642650,-13.25464
2021-05-05 11:38:08.658280,-14.4371
2021-05-05 11:38:08.673910,-11.68817
2021-05-05 11:38:08.689530,-6.921295
2021-05-05 11:38:08.705160,-2.821381
2021-05-05 11:38:08.720780,-1.764603
2021-05-05 11:38:08.736410,-4.795822
2021-05-05 11:38:08.752030,-11.14145
2021-05-05 11:38:08.767660,-18.50359
2021-05-05 11:38:08.783290,-24.0731
2021-05-05 11:38:08.798910,-25.66441
2021-05-05 11:38:08.814540,-22.54634
2021-05-05 11:38:08.830160,-15.52405
2021-05-05 11:38:08.845790,-6.421967
2021-05-05 11:38:08.861410,2.718399
2021-05-05 11:38:08.877040,10.31215
2021-05-05 11:38:08.892670,15.52921
2021-05-05 11:38:08.908290,18.22675
2021-05-05 11:38:08.923920,18.72137
2021-05-05 11:38:08.939540,17.48196
2021-05-05 11:38:08.955170,14.96756
2021-05-05 11:38:08.970790,11.51396
2021-05-05 11:38:08.986420,7.28186
2021-05-05 11:38:09.002050,2.257614
2021-05-05 11:38:09.017670,-3.681686
2021-05-05 11:38:09.033300,-10.64304
2021-05-05 11:38:09.048920,-18.6044
2021-05-05 11:38:09.064550,-27.30882
2021-05-05 11:38:09.080170,-36.26363
2021-05-05 11:38:09.095800,-44.71155
2021-05-05 11:38:09.111430,-51.66739
2021-05-05 11:38:09.127050,-56.00743
2021-05-05 11:38:09.142680,-56.69907
2021-05-05 11:38:09.158300,-53.22757
2021-05-05 11:38:09.173930,-46.05223
2021-05-05 11:38:09.189550,-36.78738
2021-05-05 11:38:09.205180,-27.97272
2021-05-05 11:38:09.220810,-22.33916
2021-05-05 11:38:09.236430,-21.89264
2021-05-05 11:38:09.252060,-27.20171
2021-05-05 11:38:09.267680,-37.24373
2021-05-05 11:38:09.283310,-49.86794
2021-05-05 11:38:09.298930,-62.59663
2021-05-05 11:38:09.314560,-73.48987
2021-05-05 11:38:09.330190,-81.68256
2021-05-05 11:38:09.345810,-87.50101
2021-05-05 11:38:09.361440,-92.19873
2021-05-05 11:38:09.377060,-97.46667
2021-05-05 11:38:09.392690,-104.8455
2021-05-05 11:38:09.408310,-115.2373
2021-05-05 11:38:09.423940,-128.5772
2021-05-05 11:38:09.439570,-143.7376
2021-05-05 11:38:09.455190,-158.7293
2021-05-05 11:38:09.470820,-171.0936
2021-05-05 11:38:09.486440,-178.3885
2021-05-05 11:38:09.502070,-178.7036
2021-05-05 11:38:09.517690,-171.0418
2021-05-05 11:38:09.533320,-155.4888
2021-05-05 11:38:09.548950,-133.1089
2021-05-05 11:38:09.564570,-105.6427
2021-05-05 11:38:09.580200,-75.09576
2021-05-05 11:38:09.595820,-43.43405
2021-05-05 11:38:09.611450,-12.39096
2021-05-05 11:38:09.627070,16.53677
2021-05-05 11:38:09.642700,42.08865
2021-05-05 11:38:09.658330,63.35147
2021-05-05 11:38:09.673950,79.92072
2021-05-05 11:38:09.689580,92.02475
2021-05-05 11:38:09.705200,100.4214
2021-05-05 11:38:09.720830,106.0915
2021-05-05 11:38:09.736450,109.7952
2021-05-05 11:38:09.752080,111.8745
2021-05-05 11:38:09.767710,112.3121
2021-05-05 11:38:09.783330,111.0514
2021-05-05 11:38:09.798960,108.2805
2021-05-05 11:38:09.814580,104.5095
2021-05-05 11:38:09.830210,100.3701
2021-05-05 11:38:09.845830,96.30673
2021-05-05 11:38:09.861460,92.43805
2021-05-05 11:38:09.877090,88.64853
2021-05-05 11:38:09.892710,84.84302
2021-05-05 11:38:09.908340,81.12796
2021-05-05 11:38:09.923960,77.78003
2021-05-05 11:38:09.939590,75.10345
2021-05-05 11:38:09.955210,73.13016
2021-05-05 11:38:09.970840,71.50623
2021-05-05 11:38:09.986470,69.62344
2021-05-05 11:38:10.002090,66.89603
2021-05-05 11:38:10.017720,63.0228
2021-05-05 11:38:10.033340,58.11783
2021-05-05 11:38:10.048970,52.62305
2021-05-05 11:38:10.064590,47.12772
2021-05-05 11:38:10.080220,42.21301
2021-05-05 11:38:10.095850,38.41452
2021-05-05 11:38:10.111470,36.29483
2021-05-05 11:38:10.127100,36.49014
2021-05-05 11:38:10.142720,39.65747
2021-05-05 11:38:10.158350,46.24271
2021-05-05 11:38:10.173970,56.15707
2021-05-05 11:38:10.189600,68.5206
2021-05-05 11:38:10.205230,81.67575
2021-05-05 11:38:10.220850,93.49341
2021-05-05 11:38:10.236480,101.8528
2021-05-05 11:38:10.252100,105.2496
2021-05-05 11:38:10.267730,103.144
2021-05-05 11:38:10.283350,96.12054
2021-05-05 11:38:10.298980,85.75858
2021-05-05 11:38:10.314610,74.29358
2021-05-05 11:38:10.330230,64.02844
2021-05-05 11:38:10.345860,56.68607
2021-05-05 11:38:10.361480,52.97037
2021-05-05 11:38:10.377110,52.59155
2021-05-05 11:38:10.392730,54.71619
2021-05-05 11:38:10.408360,58.60138
2021-05-05 11:38:10.423990,63.89148
2021-05-05 11:38:10.439610,70.47882
2021-05-05 11:38:10.455240,77.98312
2021-05-05 11:38:10.470860,85.32831
2021-05-05 11:38:10.486490,90.80682
2021-05-05 11:38:10.502120,92.74396
2021-05-05 11:38:10.517740,90.3063
2021-05-05 11:38:10.533370,83.95944
2021-05-05 11:38:10.548990,75.20972
2021-05-05 11:38:10.564620,65.77008
2021-05-05 11:38:10.580240,56.66312
2021-05-05 11:38:10.595870,47.80927
2021-05-05 11:38:10.611500,38.27982
2021-05-05 11:38:10.627120,26.96585
2021-05-05 11:38:10.642750,13.24951
2021-05-05 11:38:10.658370,-2.680298
2021-05-05 11:38:10.674000,-19.94183
2021-05-05 11:38:10.689620,-37.28693
2021-05-05 11:38:10.705250,-53.4201
2021-05-05 11:38:10.720880,-67.20868
2021-05-05 11:38:10.736500,-77.91864
2021-05-05 11:38:10.752130,-85.34329
2021-05-05 11:38:10.767750,-89.94708
2021-05-05 11:38:10.783380,-92.83313
2021-05-05 11:38:10.799000,-95.61667
2021-05-05 11:38:10.814630,-99.77066
2021-05-05 11:38:10.830260,-106.0187
2021-05-05 11:38:10.845880,-113.8081
2021-05-05 11:38:10.861510,-121.2641
2021-05-05 11:38:10.877130,-125.5833
2021-05-05 11:38:10.892760,-123.8906
2021-05-05 11:38:10.908380,-114.222
2021-05-05 11:38:10.924010,-96.33734
2021-05-05 11:38:10.939640,-72.05463
2021-05-05 11:38:10.955260,-44.92256
2021-05-05 11:38:10.970890,-19.28418
2021-05-05 11:38:10.986510,0.9321594
2021-05-05 11:38:11.002140,13.36906
2021-05-05 11:38:11.017760,17.786
2021-05-05 11:38:11.033390,15.88922
2021-05-05 11:38:11.049020,10.42094
2021-05-05 11:38:11.064640,3.997696
2021-05-05 11:38:11.080270,-1.820007
2021-05-05 11:38:11.095890,-6.770493
2021-05-05 11:38:11.111520,-11.42383
2021-05-05 11:38:11.127140,-16.30669
2021-05-05 11:38:11.142770,-21.23203
2021-05-05 11:38:11.158400,-25.2616
2021-05-05 11:38:11.174020,-27.30145
2021-05-05 11:38:11.189650,-26.92337
2021-05-05 11:38:11.205270,-24.8775
2021-05-05 11:38:11.220900,-22.88
2021-05-05 11:38:11.236520,-22.86412
2021-05-05 11:38:11.252150,-26.10326
2021-05-05 11:38:11.267780,-32.56892
2021-05-05 11:38:11.283400,-40.92186
2021-05-05 11:38:11.299030,-49.25763
2021-05-05 11:38:11.314650,-55.93941
2021-05-05 11:38:11.330280,-60.39281
2021-05-05 11:38:11.345900,-63.26979
2021-05-05 11:38:11.361530,-66.0426
2021-05-05 11:38:11.377160,-70.13771
2021-05-05 11:38:11.392780,-76.14409
2021-05-05 11:38:11.408410,-83.4366
2021-05-05 11:38:11.424030,-90.38553
2021-05-05 11:38:11.439660,-95.04079
2021-05-05 11:38:11.455280,-95.83295
2021-05-05 11:38:11.470910,-91.8909
2021-05-05 11:38:11.486540,-82.98665
2021-05-05 11:38:11.502160,-69.31717
2021-05-05 11:38:11.517790,-51.5121
2021-05-05 11:38:11.533410,-31.00162
2021-05-05 11:38:11.549040,-10.40366
2021-05-05 11:38:11.564660,6.631042
2021-05-05 11:38:11.580290,16.58083
2021-05-05 11:38:11.595920,17.78741
2021-05-05 11:38:11.611540,11.77977
2021-05-05 11:38:11.627170,3.173264
2021-05-05 11:38:11.642790,-2.152863
2021-05-05 11:38:11.658420,0.2588501
2021-05-05 11:38:11.674040,11.40395
2021-05-05 11:38:11.689670,28.63527
2021-05-05 11:38:11.705300,47.35666
2021-05-05 11:38:11.720920,63.5761
2021-05-05 11:38:11.736550,75.60756
2021-05-05 11:38:11.752170,84.10742
2021-05-05 11:38:11.767800,90.69116
2021-05-05 11:38:11.783420,96.30453
2021-05-05 11:38:11.799050,100.5172
2021-05-05 11:38:11.814680,102.1394
2021-05-05 11:38:11.830300,100.46
2021-05-05 11:38:11.845930,96.1418
2021-05-05 11:38:11.861550,91.10493
2021-05-05 11:38:11.877180,87.53674
2021-05-05 11:38:11.892800,86.71773
2021-05-05 11:38:11.908430,88.38612
2021-05-05 11:38:11.924060,91.02417
2021-05-05 11:38:11.939680,92.69046
2021-05-05 11:38:11.955310,91.9173
2021-05-05 11:38:11.970930,88.26093
2021-05-05 11:38:11.986560,82.23758
2021-05-05 11:38:12.002180,74.9173
2021-05-05 11:38:12.017810,67.36809
2021-05-05 11:38:12.033440,60.22324
2021-05-05 11:38:12.049060,53.52615
2021-05-05 11:38:12.064690,46.81416
2021-05-05 11:38:12.080310,39.4895
2021-05-05 11:38:12.095940,31.26343
2021-05-05 11:38:12.111560,22.47452
2021-05-05 11:38:12.127190,14.12132
2021-05-05 11:38:12.142820,7.548828
2021-05-05 11:38:12.158440,3.904633
2021-05-05 11:38:12.174070,3.615051
2021-05-05 11:38:12.189690,6.187546
2021-05-05 11:38:12.205320,10.31293
2021-05-05 11:38:12.220940,14.34476
2021-05-05 11:38:12.236570,16.84899
2021-05-05 11:38:12.252200,17.0779
2021-05-05 11:38:12.267820,15.09928
2021-05-05 11:38:12.283450,11.62128
2021-05-05 11:38:12.299070,7.629898
2021-05-05 11:38:12.314700,4.005424
2021-05-05 11:38:12.330320,1.263458
2021-05-05 11:38:12.345950,-0.550354
2021-05-05 11:38:12.361580,-1.796242
2021-05-05 11:38:12.377200,-3.053795
2021-05-05 11:38:12.392830,-4.836952
2021-05-05 11:38:12.408450,-7.3592
2021-05-05 11:38:12.424080,-10.42699
2021-05-05 11:38:12.439700,-13.52052
2021-05-05 11:38:12.455330,-16.09955
2021-05-05 11:38:12.470960,-17.97687
2021-05-05 11:38:12.486580,-19.45614
2021-05-05 11:38:12.502210,-21.30532
2021-05-05 11:38:12.517830,-24.50097
2021-05-05 11:38:12.533460,-29.79715
2021-05-05 11:38:12.549080,-37.55462
2021-05-05 11:38:12.564710,-47.78335
2021-05-05 11:38:12.580340,-60.21636
2021-05-05 11:38:12.595960,-74.16431
2021-05-05 11:38:12.611590,-88.14537
2021-05-05 11:38:12.627210,-99.67249
2021-05-05 11:38:12.642840,-105.748
2021-05-05 11:38:12.658460,-103.9842
2021-05-05 11:38:12.674090,-94.00578
2021-05-05 11:38:12.689720,-78.16058
2021-05-05 11:38:12.705340,-60.87291
2021-05-05 11:38:12.720970,-46.80099
2021-05-05 11:38:12.736590,-38.73463
2021-05-05 11:38:12.752220,-36.44376
2021-05-05 11:38:12.767840,-37.20493
2021-05-05 11:38:12.783470,-37.65137
2021-05-05 11:38:12.799100,-35.75971
2021-05-05 11:38:12.814720,-31.82068
2021-05-05 11:38:12.830350,-27.86816
2021-05-05 11:38:12.845970,-26.14738
2021-05-05 11:38:12.861600,-27.58142
2021-05-05 11:38:12.877220,-31.36509
2021-05-05 11:38:12.892850,-35.59613
2021-05-05 11:38:12.908480,-38.59718
2021-05-05 11:38:12.924100,-39.82821
2021-05-05 11:38:12.939730,-39.97166
2021-05-05 11:38:12.955350,-40.34906
2021-05-05 11:38:12.970980,-42.0461
2021-05-05 11:38:12.986600,-45.11875
2021-05-05 11:38:13.002230,-48.50274
2021-05-05 11:38:13.017860,-50.63603
2021-05-05 11:38:13.033480,-50.27122
2021-05-05 11:38:13.049110,-47.16651
2021-05-05 11:38:13.064730,-42.16055
2021-05-05 11:38:13.080360,-36.64364
2021-05-05 11:38:13.095980,-31.66692
2021-05-05 11:38:13.111610,-27.28335
2021-05-05 11:38:13.127240,-22.54614
2021-05-05 11:38:13.142860,-16.25807
2021-05-05 11:38:13.158490,-7.944221
2021-05-05 11:38:13.174110,1.531242
2021-05-05 11:38:13.189740,10.18863
2021-05-05 11:38:13.205370,15.91741
2021-05-05 11:38:13.220990,17.62602
2021-05-05 11:38:13.236620,15.86753
2021-05-05 11:38:13.252240,12.48999
2021-05-05 11:38:13.267870,9.537125
2021-05-05 11:38:13.283490,8.068066
2021-05-05 11:38:13.299120,7.662888
2021-05-05 11:38:13.314750,6.900122
2021-05-05 11:38:13.330370,4.455456
2021-05-05 11:38:13.346000,0.02557945
2021-05-05 11:38:13.361620,-5.412317
2021-05-05 11:38:13.377250,-10.178
2021-05-05 11:38:13.392870,-12.75165
2021-05-05 11:38:13.408500,-12.46398
2021-05-05 11:38:13.439750,-4.437057
2021-05-05 11:38:13.455380,2.255101
2021-05-05 11:38:13.471000,10.39396
2021-05-05 11:38:13.486630,19.81548
2021-05-05 11:38:13.502250,29.98977
2021-05-05 11:38:13.517880,39.83425
2021-05-05 11:38:13.533510,47.95593
2021-05-05 11:38:13.549130,53.18426
2021-05-05 11:38:13.564760,55.06925
2021-05-05 11:38:13.580380,53.93638
2021-05-05 11:38:13.596010,50.60884
2021-05-05 11:38:13.611630,45.91008
2021-05-05 11:38:13.627260,40.27461
2021-05-05 11:38:13.642890,33.6979
2021-05-05 11:38:13.658510,25.95744
2021-05-05 11:38:13.674140,16.92587
2021-05-05 11:38:13.689760,6.822565
2021-05-05 11:38:13.705390,-3.72802
2021-05-05 11:38:13.721010,-13.85634
2021-05-05 11:38:13.736640,-22.74399
2021-05-05 11:38:13.752270,-29.9906
2021-05-05 11:38:13.767890,-35.87508
2021-05-05 11:38:13.783520,-41.37854
2021-05-05 11:38:13.799140,-47.90276
2021-05-05 11:38:13.814770,-56.67956
2021-05-05 11:38:13.830390,-68.05324
2021-05-05 11:38:13.846020,-80.95992
2021-05-05 11:38:13.861650,-92.96764
2021-05-05 11:38:13.877270,-100.9
2021-05-05 11:38:13.892900,-101.9088
2021-05-05 11:38:13.908520,-94.56139
2021-05-05 11:38:13.924150,-79.32001
2021-05-05 11:38:13.939770,-58.3525
2021-05-05 11:38:13.955400,-34.69013
2021-05-05 11:38:13.971030,-11.14914
2021-05-05 11:38:13.986650,10.60089
2021-05-05 11:38:14.002280,30.42363
2021-05-05 11:38:14.017900,49.6072
2021-05-05 11:38:14.033530,70.30027
2021-05-05 11:38:14.049150,94.54851
2021-05-05 11:38:14.064780,123.0316
2021-05-05 11:38:14.080410,153.8888
2021-05-05 11:38:14.096030,182.3815
2021-05-05 11:38:14.111660,201.9067
2021-05-05 11:38:14.127280,206.2961
2021-05-05 11:38:14.142910,192.5298
2021-05-05 11:38:14.158530,162.443
2021-05-05 11:38:14.174160,122.3539
2021-05-05 11:38:14.189790,80.65439
2021-05-05 11:38:14.205410,44.63978
2021-05-05 11:38:14.221040,18.15624
2021-05-05 11:38:14.236660,1.298012
2021-05-05 11:38:14.252290,-8.210709
2021-05-05 11:38:14.267910,-12.93689
2021-05-05 11:38:14.283540,-14.4097
2021-05-05 11:38:14.299170,-13.13008
2021-05-05 11:38:14.314790,-9.471046
2021-05-05 11:38:14.330420,-4.528023
2021-05-05 11:38:14.346040,-0.08568192
2021-05-05 11:38:14.361670,2.132393
2021-05-05 11:38:14.377290,1.326546
2021-05-05 11:38:14.392920,-2.051884
2021-05-05 11:38:14.408550,-6.751026
2021-05-05 11:38:14.424170,-11.40065
2021-05-05 11:38:14.439800,-15.00864
2021-05-05 11:38:14.455420,-17.1157
2021-05-05 11:38:14.471050,-17.74243
2021-05-05 11:38:14.486670,-17.25072
2021-05-05 11:38:14.502300,-16.29932
2021-05-05 11:38:14.517930,-15.73277
2021-05-05 11:38:14.533550,-16.30383
2021-05-05 11:38:14.549180,-18.2123
2021-05-05 11:38:14.564800,-20.81622
2021-05-05 11:38:14.580430,-22.80336
2021-05-05 11:38:14.596050,-22.8382
2021-05-05 11:38:14.611680,-20.36496
2021-05-05 11:38:14.627310,-16.04128
2021-05-05 11:38:14.642930,-11.53081
2021-05-05 11:38:14.658560,-8.705227
2021-05-05 11:38:14.674180,-8.714622
2021-05-05 11:38:14.689810,-11.50082
2021-05-05 11:38:14.705430,-15.93607
2021-05-05 11:38:14.721060,-20.53061
2021-05-05 11:38:14.736690,-24.11277
2021-05-05 11:38:14.752310,-26.25901
2021-05-05 11:38:14.767940,-27.1827
2021-05-05 11:38:14.783560,-27.33328
2021-05-05 11:38:14.799190,-26.9523
2021-05-05 11:38:14.814810,-25.86124
2021-05-05 11:38:14.830440,-23.62355
2021-05-05 11:38:14.846070,-19.87358
2021-05-05 11:38:14.861690,-14.63056
2021-05-05 11:38:14.877320,-8.415377
2021-05-05 11:38:14.892940,-2.071131
2021-05-05 11:38:14.908570,3.548622
2021-05-05 11:38:14.924190,7.920254
2021-05-05 11:38:14.939820,10.98893
2021-05-05 11:38:14.955450,13.12766
2021-05-05 11:38:14.971070,14.8964
2021-05-05 11:38:14.986700,16.84345
2021-05-05 11:38:15.002320,19.32431
2021-05-05 11:38:15.017950,22.49339
2021-05-05 11:38:15.033570,26.29522
2021-05-05 11:38:15.049200,30.51019
2021-05-05 11:38:15.064830,34.70498
2021-05-05 11:38:15.080450,38.23566
2021-05-05 11:38:15.096080,40.31447
2021-05-05 11:38:15.111700,40.20583
2021-05-05 11:38:15.127330,37.5085
2021-05-05 11:38:15.142950,32.36811
2021-05-05 11:38:15.158580,25.51872
2021-05-05 11:38:15.174210,18.10296
2021-05-05 11:38:15.189830,11.3149
2021-05-05 11:38:15.205460,6.044365
2021-05-05 11:38:15.221080,2.642471
2021-05-05 11:38:15.236710,0.9279022
2021-05-05 11:38:15.252330,0.3229294
2021-05-05 11:38:15.267960,0.138649
2021-05-05 11:38:15.283590,-0.2054291
2021-05-05 11:38:15.299210,-1.043037
2021-05-05 11:38:15.314840,-2.435516
2021-05-05 11:38:15.330460,-4.285645
2021-05-05 11:38:15.346090,-6.453201
2021-05-05 11:38:15.361710,-8.805573
2021-05-05 11:38:15.377340,-11.23725
2021-05-05 11:38:15.392970,-13.65473
2021-05-05 11:38:15.408590,-15.94589
2021-05-05 11:38:15.424220,-18.00865
2021-05-05 11:38:15.439840,-19.82915
2021-05-05 11:38:15.455470,-21.51316
2021-05-05 11:38:15.471100,-23.27099
2021-05-05 11:38:15.486720,-25.28067
2021-05-05 11:38:15.502350,-27.55456
2021-05-05 11:38:15.517970,-29.76585
2021-05-05 11:38:15.533600,-31.3233
2021-05-05 11:38:15.549220,-31.50157
2021-05-05 11:38:15.564850,-29.7626
2021-05-05 11:38:15.580480,-25.98518
2021-05-05 11:38:15.596100,-20.54906
2021-05-05 11:38:15.611730,-14.19761
2021-05-05 11:38:15.627350,-7.765999
2021-05-05 11:38:15.642980,-1.896332
2021-05-05 11:38:15.658600,3.071075
2021-05-05 11:38:15.674230,7.086884
2021-05-05 11:38:15.689860,10.24376
2021-05-05 11:38:15.705480,12.67287
2021-05-05 11:38:15.721110,14.46483
2021-05-05 11:38:15.736730,15.72298
2021-05-05 11:38:15.767980,17.19145
2021-05-05 11:38:15.783610,17.6461
2021-05-05 11:38:15.799240,17.92924
2021-05-05 11:38:15.814860,17.92714
2021-05-05 11:38:15.830490,17.54099
2021-05-05 11:38:15.846110,16.75626
2021-05-05 11:38:15.861740,15.73128
2021-05-05 11:38:15.877360,14.74585
2021-05-05 11:38:15.892990,14.09445
2021-05-05 11:38:15.908620,13.97928
2021-05-05 11:38:15.924240,14.43378
2021-05-05 11:38:15.939870,15.29289
2021-05-05 11:38:15.955490,16.2243
2021-05-05 11:38:15.971120,16.78966
2021-05-05 11:38:15.986740,16.57347
2021-05-05 11:38:16.002370,15.28377
2021-05-05 11:38:16.018000,12.87389
2021-05-05 11:38:16.033620,9.550003
2021-05-05 11:38:16.049250,5.69989
2021-05-05 11:38:16.064870,1.73259
2021-05-05 11:38:16.080500,-2.102203
2021-05-05 11:38:16.096120,-5.839874
2021-05-05 11:38:16.111750,-9.748886
2021-05-05 11:38:16.127380,-14.1972
2021-05-05 11:38:16.143000,-19.39485
2021-05-05 11:38:16.158630,-25.24834
2021-05-05 11:38:16.174250,-31.2901
2021-05-05 11:38:16.189880,-36.79912
2021-05-05 11:38:16.205500,-41.01224
2021-05-05 11:38:16.221130,-43.36848
2021-05-05 11:38:16.236760,-43.63026
2021-05-05 11:38:16.252380,-41.90135
2021-05-05 11:38:16.268010,-38.50905
2021-05-05 11:38:16.283630,-33.8835
2021-05-05 11:38:16.299260,-28.4613
2021-05-05 11:38:16.314880,-22.67484
2021-05-05 11:38:16.330510,-16.93936
2021-05-05 11:38:16.346140,-11.61948
2021-05-05 11:38:16.361760,-6.962357
2021-05-05 11:38:16.377390,-3.022629
2021-05-05 11:38:16.393010,0.3219452
2021-05-05 11:38:16.408640,3.300888
2021-05-05 11:38:16.424260,6.166183
2021-05-05 11:38:16.439890,9.084366
2021-05-05 11:38:16.455520,12.14333
2021-05-05 11:38:16.471140,15.33784
2021-05-05 11:38:16.486770,18.60652
2021-05-05 11:38:16.502390,21.79128
2021-05-05 11:38:16.518020,24.64973
2021-05-05 11:38:16.533640,26.86778
2021-05-05 11:38:16.549270,28.16843
2021-05-05 11:38:16.564900,28.46863
2021-05-05 11:38:16.580520,27.95192
2021-05-05 11:38:16.596150,27.03699
2021-05-05 11:38:16.611770,26.23798
2021-05-05 11:38:16.627400,25.90823
2021-05-05 11:38:16.643020,26.17035
2021-05-05 11:38:16.658650,26.85672
2021-05-05 11:38:16.674280,27.67615
2021-05-05 11:38:16.689900,28.35806
2021-05-05 11:38:16.705530,28.81204
2021-05-05 11:38:16.721150,29.07632
2021-05-05 11:38:16.736780,29.28195
2021-05-05 11:38:16.752400,29.49731
2021-05-05 11:38:16.768030,29.64572
2021-05-05 11:38:16.783660,29.4187
2021-05-05 11:38:16.799280,28.35397
2021-05-05 11:38:16.814910,25.97809
2021-05-05 11:38:16.830530,21.89166
2021-05-05 11:38:16.861780,8.160095
2021-05-05 11:38:16.877410,-1.210327
2021-05-05 11:38:16.893040,-11.78223
2021-05-05 11:38:16.908660,-22.93097
2021-05-05 11:38:16.924290,-33.72223
2021-05-05 11:38:16.939910,-43.04233
2021-05-05 11:38:16.955540,-49.80927
2021-05-05 11:38:16.971160,-53.35098
2021-05-05 11:38:16.986790,-53.55667
2021-05-05 11:38:17.002420,-50.87729
2021-05-05 11:38:17.018040,-46.02316
2021-05-05 11:38:17.033670,-39.6684
2021-05-05 11:38:17.049290,-32.28427
2021-05-05 11:38:17.064920,-24.19864
2021-05-05 11:38:17.080540,-15.83975
2021-05-05 11:38:17.096170,-7.818878
2021-05-05 11:38:17.111800,-0.7949524
2021-05-05 11:38:17.127420,4.873749
2021-05-05 11:38:17.143050,9.418457
2021-05-05 11:38:17.158670,13.62839
2021-05-05 11:38:17.174300,18.41422
2021-05-05 11:38:17.189920,24.23355
2021-05-05 11:38:17.205550,30.78171
2021-05-05 11:38:17.221180,37.03607
2021-05-05 11:38:17.236800,41.83682
2021-05-05 11:38:17.252430,44.42316
2021-05-05 11:38:17.268050,44.75391
2021-05-05 11:38:17.283680,43.3472
2021-05-05 11:38:17.299300,40.98248
2021-05-05 11:38:17.314930,38.30927
2021-05-05 11:38:17.330560,35.55338
2021-05-05 11:38:17.346180,32.4761
2021-05-05 11:38:17.361810,28.44498
2021-05-05 11:38:17.377430,22.57416
2021-05-05 11:38:17.393060,13.98782
2021-05-05 11:38:17.408680,2.218964
2021-05-05 11:38:17.424310,-12.32431
2021-05-05 11:38:17.439940,-28.10007
2021-05-05 11:38:17.455560,-42.70685
2021-05-05 11:38:17.471190,-53.75571
2021-05-05 11:38:17.486810,-59.99036
2021-05-05 11:38:17.502440,-62.10953
2021-05-05 11:38:17.518060,-62.60403
2021-05-05 11:38:17.533690,-64.75333
2021-05-05 11:38:17.549320,-71.12436
2021-05-05 11:38:17.564940,-82.504
2021-05-05 11:38:17.580570,-97.74176
2021-05-05 11:38:17.596190,-114.4189
2021-05-05 11:38:17.611820,-129.8898
2021-05-05 11:38:17.627440,-142.048
2021-05-05 11:38:17.643070,-149.5625
2021-05-05 11:38:17.658700,-151.6953
2021-05-05 11:38:17.674320,-148.144
2021-05-05 11:38:17.689950,-139.0321
2021-05-05 11:38:17.705570,-125.1172
2021-05-05 11:38:17.721200,-107.9098
2021-05-05 11:38:17.736820,-89.43338
2021-05-05 11:38:17.752450,-71.7457
2021-05-05 11:38:17.768080,-56.42633
2021-05-05 11:38:17.783700,-44.375
2021-05-05 11:38:17.799330,-35.93872
2021-05-05 11:38:17.814950,-31.20502
2021-05-05 11:38:17.830580,-30.11035
2021-05-05 11:38:17.846210,-32.3808
2021-05-05 11:38:17.861830,-37.30234
2021-05-05 11:38:17.877460,-43.62781
2021-05-05 11:38:17.893080,-49.71814
2021-05-05 11:38:17.908710,-53.86569
2021-05-05 11:38:17.924330,-54.66409
2021-05-05 11:38:17.939960,-51.21698
2021-05-05 11:38:17.955590,-43.22546
2021-05-05 11:38:17.971210,-30.86087
2021-05-05 11:38:17.986840,-14.67316
2021-05-05 11:38:18.002460,4.518005
2021-05-05 11:38:18.018090,25.65265
2021-05-05 11:38:18.033710,47.43771
2021-05-05 11:38:18.049340,68.40878
2021-05-05 11:38:18.064970,87.04843
2021-05-05 11:38:18.096220,112.2717
2021-05-05 11:38:18.111840,117.451
2021-05-05 11:38:18.127470,117.717
2021-05-05 11:38:18.143090,113.8018
2021-05-05 11:38:18.158720,106.7796
2021-05-05 11:38:18.174350,97.73206
2021-05-05 11:38:18.189970,87.41327
2021-05-05 11:38:18.205600,75.90927
2021-05-05 11:38:18.221220,62.51782
2021-05-05 11:38:18.236850,45.8873
2021-05-05 11:38:18.252470,24.487
2021-05-05 11:38:18.268100,-2.701172
2021-05-05 11:38:18.283730,-35.43973
2021-05-05 11:38:18.299350,-71.75693
2021-05-05 11:38:18.314980,-107.985
2021-05-05 11:38:18.330600,-139.3587
2021-05-05 11:38:18.346230,-161.1792
2021-05-05 11:38:18.361850,-170.1114
2021-05-05 11:38:18.377480,-165.2154
2021-05-05 11:38:18.393110,-148.3153
2021-05-05 11:38:18.408730,-123.6065
2021-05-05 11:38:18.424360,-96.64905
2021-05-05 11:38:18.439980,-72.97795
2021-05-05 11:38:18.455610,-56.85185
2021-05-05 11:38:18.471230,-50.31306
2021-05-05 11:38:18.486860,-52.9408
2021-05-05 11:38:18.502490,-62.11501
2021-05-05 11:38:18.518110,-73.78987
2021-05-05 11:38:18.533740,-83.5266
2021-05-05 11:38:18.549360,-87.51756
2021-05-05 11:38:18.564990,-83.39908
2021-05-05 11:38:18.580610,-70.81596
2021-05-05 11:38:18.596240,-51.46852
2021-05-05 11:38:18.611870,-28.53531
2021-05-05 11:38:18.627490,-5.562515
2021-05-05 11:38:18.643120,14.83371
2021-05-05 11:38:18.658740,31.87455
2021-05-05 11:38:18.674370,46.62646
2021-05-05 11:38:18.689990,61.10405
2021-05-05 11:38:18.705620,76.89308
2021-05-05 11:38:18.721250,94.02249
2021-05-05 11:38:18.736870,110.6291
2021-05-05 11:38:18.752500,123.6792
2021-05-05 11:38:18.768120,130.225
2021-05-05 11:38:18.783750,128.5943
2021-05-05 11:38:18.799370,118.8608
2021-05-05 11:38:18.815000,102.513
2021-05-05 11:38:18.830630,81.67389
2021-05-05 11:38:18.846250,58.36806
2021-05-05 11:38:18.861880,34.22166
2021-05-05 11:38:18.877500,10.53642
2021-05-05 11:38:18.893130,-11.51992
2021-05-05 11:38:18.908750,-30.84898
2021-05-05 11:38:18.924380,-46.5783
2021-05-05 11:38:18.940010,-58.29669
2021-05-05 11:38:18.955630,-66.11244
2021-05-05 11:38:18.971260,-70.54984
2021-05-05 11:38:18.986880,-72.27448
2021-05-05 11:38:19.002510,-71.77396
2021-05-05 11:38:19.018130,-69.17839
2021-05-05 11:38:19.033760,-64.32231
2021-05-05 11:38:19.049390,-56.93263
2021-05-05 11:38:19.065010,-46.91547
2021-05-05 11:38:19.080640,-34.56831
2021-05-05 11:38:19.096260,-20.67542
2021-05-05 11:38:19.111890,-6.414719
2021-05-05 11:38:19.127510,6.876266
2021-05-05 11:38:19.143140,18.04485
2021-05-05 11:38:19.158770,26.41656
2021-05-05 11:38:19.190020,35.22824
2021-05-05 11:38:19.205640,37.06882
2021-05-05 11:38:19.221270,38.23047
2021-05-05 11:38:19.236890,39.07245
2021-05-05 11:38:19.252520,39.54501
2021-05-05 11:38:19.268150,39.37146
2021-05-05 11:38:19.283770,38.34406
2021-05-05 11:38:19.299400,36.52301
2021-05-05 11:38:19.315020,34.25259
2021-05-05 11:38:19.330650,31.97464
2021-05-05 11:38:19.346270,29.98724
2021-05-05 11:38:19.361900,28.32693
2021-05-05 11:38:19.377530,26.78778
2021-05-05 11:38:19.393150,25.09799
2021-05-05 11:38:19.408780,23.10315
2021-05-05 11:38:19.424400,20.90112
2021-05-05 11:38:19.440030,18.81448
2021-05-05 11:38:19.455650,17.26724
2021-05-05 11:38:19.471280,16.60889
2021-05-05 11:38:19.486910,16.99258
2021-05-05 11:38:19.502530,18.34567
2021-05-05 11:38:19.518160,20.42688
2021-05-05 11:38:19.533780,22.93024
2021-05-05 11:38:19.549410,25.58405
2021-05-05 11:38:19.565030,28.21658
2021-05-05 11:38:19.580660,30.73184
2021-05-05 11:38:19.596290,33.04919
2021-05-05 11:38:19.611910,35.0354
2021-05-05 11:38:19.627540,36.54727
2021-05-05 11:38:19.643160,37.56168
2021-05-05 11:38:19.658790,38.34988
2021-05-05 11:38:19.674410,39.53815
2021-05-05 11:38:19.690040,42.00964
2021-05-05 11:38:19.705670,46.63806
2021-05-05 11:38:19.721290,53.86966
2021-05-05 11:38:19.736920,63.47952
2021-05-05 11:38:19.752540,74.50336
2021-05-05 11:38:19.768170,85.50562
2021-05-05 11:38:19.783790,95.05756
2021-05-05 11:38:19.799420,102.1612
2021-05-05 11:38:19.815050,106.4686
2021-05-05 11:38:19.830670,108.2145
2021-05-05 11:38:19.846300,108.0038
2021-05-05 11:38:19.861920,106.5988
2021-05-05 11:38:19.877550,104.7391
2021-05-05 11:38:19.893170,102.9437
2021-05-05 11:38:19.908800,101.3136
2021-05-05 11:38:19.924430,99.39154
2021-05-05 11:38:19.940050,96.24924
2021-05-05 11:38:19.955680,90.86124
2021-05-05 11:38:19.971300,82.6395
2021-05-05 11:38:19.986930,71.81839
2021-05-05 11:38:20.002550,59.44144
2021-05-05 11:38:20.018180,46.8967
2021-05-05 11:38:20.033810,35.26749
2021-05-05 11:38:20.049430,24.87946
2021-05-05 11:38:20.065060,15.35336
2021-05-05 11:38:20.080680,6.05249
2021-05-05 11:38:20.096310,-3.365723
2021-05-05 11:38:20.111930,-12.7099
2021-05-05 11:38:20.127560,-21.45581
2021-05-05 11:38:20.143190,-29.20026
2021-05-05 11:38:20.158810,-35.95996
2021-05-05 11:38:20.174440,-42.13416
2021-05-05 11:38:20.190060,-48.16187
2021-05-05 11:38:20.205690,-54.15591
2021-05-05 11:38:20.221310,-59.88019
2021-05-05 11:38:20.236940,-64.87912
2021-05-05 11:38:20.252570,-68.78845
2021-05-05 11:38:20.268190,-71.49283
2021-05-05 11:38:20.283820,-73.09207
2021-05-05 11:38:20.299440,-73.66696
2021-05-05 11:38:20.315070,-73.07669
2021-05-05 11:38:20.330700,-70.89893
2021-05-05 11:38:20.346320,-66.55066
2021-05-05 11:38:20.361950,-59.52924
2021-05-05 11:38:20.377570,-49.67508
2021-05-05 11:38:20.393200,-37.29529
2021-05-05 11:38:20.408820,-23.16251
2021-05-05 11:38:20.424450,-8.372925
2021-05-05 11:38:20.440080,5.930328
2021-05-05 11:38:20.455700,18.7998
2021-05-05 11:38:20.471330,29.69995
2021-05-05 11:38:20.486950,38.54889
2021-05-05 11:38:20.502580,45.58621
2021-05-05 11:38:20.518200,51.18234
2021-05-05 11:38:20.533830,55.65793
2021-05-05 11:38:20.549460,59.22134
2021-05-05 11:38:20.565080,62.02557
2021-05-05 11:38:20.580710,64.27298
2021-05-05 11:38:20.596330,66.31598
2021-05-05 11:38:20.611960,68.59674
2021-05-05 11:38:20.627580,71.52316
2021-05-05 11:38:20.643210,75.2879
2021-05-05 11:38:20.658840,79.76743
2021-05-05 11:38:20.674460,84.5311
2021-05-05 11:38:20.690090,88.99286
2021-05-05 11:38:20.705710,92.59763
2021-05-05 11:38:20.721340,94.9697
2021-05-05 11:38:20.736960,95.94659
2021-05-05 11:38:20.752590,95.52942
2021-05-05 11:38:20.768220,93.82712
2021-05-05 11:38:20.783840,91.05777
2021-05-05 11:38:20.799470,87.57507
2021-05-05 11:38:20.815090,83.95322
2021-05-05 11:38:20.830720,80.86389
2021-05-05 11:38:20.846340,78.86871
2021-05-05 11:38:20.861970,78.10181
2021-05-05 11:38:20.877600,78.04974
2021-05-05 11:38:20.893220,77.6517
2021-05-05 11:38:20.908850,75.69513
2021-05-05 11:38:20.924470,71.40503
2021-05-05 11:38:20.940100,64.92697
2021-05-05 11:38:20.955720,57.37735
2021-05-05 11:38:20.971350,50.46201
2021-05-05 11:38:20.986980,45.72745
2021-05-05 11:38:21.002600,43.90219
2021-05-05 11:38:21.018230,44.63818
2021-05-05 11:38:21.033850,46.82053
2021-05-05 11:38:21.049480,49.18588
2021-05-05 11:38:21.065100,50.87558
2021-05-05 11:38:21.080730,51.58229
2021-05-05 11:38:21.096360,51.33913
2021-05-05 11:38:21.111980,50.15416
2021-05-05 11:38:21.127610,47.8176
2021-05-05 11:38:21.143230,43.99139
2021-05-05 11:38:21.158860,38.51869
2021-05-05 11:38:21.174480,31.65704
2021-05-05 11:38:21.190110,24.1161
2021-05-05 11:38:21.205740,16.78632
2021-05-05 11:38:21.221360,10.37628
2021-05-05 11:38:21.236990,5.180008
2021-05-05 11:38:21.252610,1.095596
2021-05-05 11:38:21.268240,-2.157349
2021-05-05 11:38:21.283860,-4.825859
2021-05-05 11:38:21.299490,-7.155273
2021-05-05 11:38:21.315120,-9.540977
2021-05-05 11:38:21.330740,-12.7375
2021-05-05 11:38:21.346370,-17.7752
2021-05-05 11:38:21.361990,-25.65097
2021-05-05 11:38:21.377620,-36.83001
2021-05-05 11:38:21.393240,-50.94503
2021-05-05 11:38:21.408870,-66.81997
2021-05-05 11:38:21.424500,-82.87234
2021-05-05 11:38:21.440120,-97.67665
2021-05-05 11:38:21.455750,-110.5012
2021-05-05 11:38:21.471370,-121.4972
2021-05-05 11:38:21.487000,-131.5122
2021-05-05 11:38:21.502620,-141.5982
2021-05-05 11:38:21.518250,-152.5066
2021-05-05 11:38:21.533880,-164.4019
2021-05-05 11:38:21.549500,-176.8292
2021-05-05 11:38:21.565130,-188.847
2021-05-05 11:38:21.580750,-199.1761
2021-05-05 11:38:21.596380,-206.3329
2021-05-05 11:38:21.627630,-205.1741
2021-05-05 11:38:21.643260,-194.8316
2021-05-05 11:38:21.658880,-178.0523
2021-05-05 11:38:21.674510,-156.2832
2021-05-05 11:38:21.690130,-131.8938
2021-05-05 11:38:21.705760,-107.6176
2021-05-05 11:38:21.721380,-85.78513
2021-05-05 11:38:21.737010,-67.7952
2021-05-05 11:38:21.752640,-54.01143
2021-05-05 11:38:21.768260,-44.16122
2021-05-05 11:38:21.783890,-37.93085
2021-05-05 11:38:21.799510,-35.27983
2021-05-05 11:38:21.815140,-36.24767
2021-05-05 11:38:21.830760,-40.41382
2021-05-05 11:38:21.846390,-46.43123
2021-05-05 11:38:21.862020,-52.1133
2021-05-05 11:38:21.877640,-55.13091
2021-05-05 11:38:21.893270,-54.02229
2021-05-05 11:38:21.908890,-48.91208
2021-05-05 11:38:21.924520,-41.49216
2021-05-05 11:38:21.940140,-34.17598
2021-05-05 11:38:21.955770,-28.94555
2021-05-05 11:38:21.971400,-26.4778
2021-05-05 11:38:21.987020,-25.9953
2021-05-05 11:38:22.002650,-25.844
2021-05-05 11:38:22.018270,-24.44495
2021-05-05 11:38:22.033900,-21.03535
2021-05-05 11:38:22.049520,-15.89806
2021-05-05 11:38:22.065150,-10.0737
2021-05-05 11:38:22.080780,-4.771584
2021-05-05 11:38:22.096400,-0.8692245
2021-05-05 11:38:22.112030,1.326874
2021-05-05 11:38:22.127650,2.135559
2021-05-05 11:38:22.143280,2.151817
2021-05-05 11:38:22.158900,1.935638
2021-05-05 11:38:22.174530,1.810966
2021-05-05 11:38:22.190160,1.868889
2021-05-05 11:38:22.205780,2.127121
2021-05-05 11:38:22.221410,2.797356
2021-05-05 11:38:22.237030,4.366703
2021-05-05 11:38:22.252660,7.492817
2021-05-05 11:38:22.268280,12.74736
2021-05-05 11:38:22.283910,20.30059
2021-05-05 11:38:22.299540,29.78659
2021-05-05 11:38:22.315160,40.37812
2021-05-05 11:38:22.330790,51.03735
2021-05-05 11:38:22.346410,60.82796
2021-05-05 11:38:22.362040,69.14867
2021-05-05 11:38:22.377660,75.85031
2021-05-05 11:38:22.393290,81.18423
2021-05-05 11:38:22.408920,85.62698
2021-05-05 11:38:22.424540,89.57274
2021-05-05 11:38:22.440170,93.13062
2021-05-05 11:38:22.455790,96.00247
2021-05-05 11:38:22.471420,97.60781
2021-05-05 11:38:22.487050,97.39872
2021-05-05 11:38:22.502670,95.21245
2021-05-05 11:38:22.518300,91.40883
2021-05-05 11:38:22.533920,86.7809
2021-05-05 11:38:22.549550,82.16508
2021-05-05 11:38:22.565170,78.06219
2021-05-05 11:38:22.580800,74.42403
2021-05-05 11:38:22.596430,70.78758
2021-05-05 11:38:22.612050,66.56319
2021-05-05 11:38:22.627680,61.38547
2021-05-05 11:38:22.643300,55.22742
2021-05-05 11:38:22.658930,48.34552
2021-05-05 11:38:22.674550,41.10757
2021-05-05 11:38:22.690180,33.82325
2021-05-05 11:38:22.705810,26.69282
2021-05-05 11:38:22.721430,19.82792
2021-05-05 11:38:22.737060,13.30547
2021-05-05 11:38:22.752680,7.152615
2021-05-05 11:38:22.768310,1.311905
2021-05-05 11:38:22.783930,-4.392872
2021-05-05 11:38:22.799560,-10.25224
2021-05-05 11:38:22.815190,-16.53299
2021-05-05 11:38:22.830810,-23.34296
2021-05-05 11:38:22.846440,-30.4758
2021-05-05 11:38:22.862060,-37.40873
2021-05-05 11:38:22.877690,-43.36589
2021-05-05 11:38:22.893310,-47.53929
2021-05-05 11:38:22.908940,-49.30563
2021-05-05 11:38:22.924570,-48.44024
2021-05-05 11:38:22.940190,-45.16323
2021-05-05 11:38:22.955820,-40.08759
2021-05-05 11:38:22.971440,-34.02002
2021-05-05 11:38:22.987070,-27.74985
2021-05-05 11:38:23.002690,-21.85673
2021-05-05 11:38:23.018320,-16.647
2021-05-05 11:38:23.033950,-12.19444
2021-05-05 11:38:23.049570,-8.481384
2021-05-05 11:38:23.065200,-5.456017
2021-05-05 11:38:23.080820,-3.127548
2021-05-05 11:38:23.096450,-1.511375
2021-05-05 11:38:23.112070,-0.5851898
2021-05-05 11:38:23.127700,-0.1683655
2021-05-05 11:38:23.143330,0.04146576
2021-05-05 11:38:23.158950,0.404274
2021-05-05 11:38:23.174580,1.189323
2021-05-05 11:38:23.190200,2.469963
2021-05-05 11:38:23.205830,4.109627
2021-05-05 11:38:23.221450,5.871101
2021-05-05 11:38:23.237080,7.536873
2021-05-05 11:38:23.252710,8.959442
2021-05-05 11:38:23.268330,10.07346
2021-05-05 11:38:23.283960,10.82104
2021-05-05 11:38:23.299580,11.10293
2021-05-05 11:38:23.315210,10.84441
2021-05-05 11:38:23.330830,10.0956
2021-05-05 11:38:23.346460,9.124763
2021-05-05 11:38:23.362090,8.389694
2021-05-05 11:38:23.377710,8.347382
2021-05-05 11:38:23.393340,9.239243
2021-05-05 11:38:23.408960,10.94672
2021-05-05 11:38:23.424590,12.9886
2021-05-05 11:38:23.440210,14.67126
2021-05-05 11:38:23.455840,15.31587
2021-05-05 11:38:23.471470,14.48177
2021-05-05 11:38:23.487090,12.10574
2021-05-05 11:38:23.502720,8.584015
2021-05-05 11:38:23.518340,4.71286
2021-05-05 11:38:23.533970,1.567139
2021-05-05 11:38:23.549590,0.2163239
2021-05-05 11:38:23.565220,1.459686
2021-05-05 11:38:23.580850,5.53392
2021-05-05 11:38:23.596470,12.02461
2021-05-05 11:38:23.612100,19.89543
2021-05-05 11:38:23.627720,27.73973
2021-05-05 11:38:23.643350,34.1633
2021-05-05 11:38:23.658970,38.16243
2021-05-05 11:38:23.674600,39.37689
2021-05-05 11:38:23.690230,38.11142
2021-05-05 11:38:23.705850,35.09265
2021-05-05 11:38:23.721480,31.0799
2021-05-05 11:38:23.737100,26.54091
2021-05-05 11:38:23.752730,21.54187
2021-05-05 11:38:23.768350,15.93111
2021-05-05 11:38:23.783980,9.68306
2021-05-05 11:38:23.799610,3.103775
2021-05-05 11:38:23.815230,-3.20639
2021-05-05 11:38:23.830860,-8.600388
2021-05-05 11:38:23.846480,-12.70656
2021-05-05 11:38:23.862110,-15.5426
2021-05-05 11:38:23.877730,-17.40326
2021-05-05 11:38:23.893360,-18.6264
2021-05-05 11:38:23.908990,-19.47115
2021-05-05 11:38:23.924610,-20.11922
2021-05-05 11:38:23.940240,-20.80634
2021-05-05 11:38:23.955860,-21.82629
2021-05-05 11:38:23.971490,-23.37697
2021-05-05 11:38:23.987110,-25.41434
2021-05-05 11:38:24.002740,-27.62762
2021-05-05 11:38:24.018370,-29.61331
2021-05-05 11:38:24.033990,-31.19943
2021-05-05 11:38:24.049620,-32.55847
2021-05-05 11:38:24.065240,-34.08572
2021-05-05 11:38:24.080870,-36.12622
2021-05-05 11:38:24.096490,-38.80212
2021-05-05 11:38:24.112120,-42.05948
2021-05-05 11:38:24.127750,-45.88126
2021-05-05 11:38:24.143370,-50.39905
2021-05-05 11:38:24.159000,-55.785
2021-05-05 11:38:24.174620,-61.97745
2021-05-05 11:38:24.190250,-68.45755
2021-05-05 11:38:24.205870,-74.25031
2021-05-05 11:38:24.221500,-78.23972
2021-05-05 11:38:24.237130,-79.55609
2021-05-05 11:38:24.252750,-77.80386
2021-05-05 11:38:24.268380,-73.09052
2021-05-05 11:38:24.284000,-65.89194
2021-05-05 11:38:24.299630,-56.94672
2021-05-05 11:38:24.315250,-47.30164
2021-05-05 11:38:24.330880,-38.31281
2021-05-05 11:38:24.346510,-31.45789
2021-05-05 11:38:24.362130,-27.86835
2021-05-05 11:38:24.377760,-27.75308
2021-05-05 11:38:24.393380,-30.08054
2021-05-05 11:38:24.409010,-32.80789
2021-05-05 11:38:24.424630,-33.48517
2021-05-05 11:38:24.440260,-30.06772
2021-05-05 11:38:24.455890,-21.51978
2021-05-05 11:38:24.471510,-8.027771
2021-05-05 11:38:24.487140,9.185211
2021-05-05 11:38:24.502760,28.2533
2021-05-05 11:38:24.518390,47.19171
2021-05-05 11:38:24.534010,64.34348
2021-05-05 11:38:24.549640,78.61572
2021-05-05 11:38:24.565270,89.55011
2021-05-05 11:38:24.580890,97.21387
2021-05-05 11:38:24.596520,101.9699
2021-05-05 11:38:24.612140,104.2796
2021-05-05 11:38:24.627770,104.5488
2021-05-05 11:38:24.643390,103.1013
2021-05-05 11:38:24.659020,100.2061
2021-05-05 11:38:24.674650,96.07986
2021-05-05 11:38:24.690270,90.84717
2021-05-05 11:38:24.705900,84.42343
2021-05-05 11:38:24.721520,76.53558
2021-05-05 11:38:24.737150,66.81201
2021-05-05 11:38:24.752770,55.07773
2021-05-05 11:38:24.768400,41.5889
2021-05-05 11:38:24.784030,27.08386
2021-05-05 11:38:24.799650,12.61447
2021-05-05 11:38:24.815280,-0.6869202
2021-05-05 11:38:24.830900,-11.85696
2021-05-05 11:38:24.846530,-20.22635
2021-05-05 11:38:24.862150,-25.44229
2021-05-05 11:38:24.877780,-27.51782
2021-05-05 11:38:24.893410,-26.79419
2021-05-05 11:38:24.909030,-23.91348
2021-05-05 11:38:24.940280,-15.03897
2021-05-05 11:38:24.955910,-10.83496
2021-05-05 11:38:24.971530,-8.004333
2021-05-05 11:38:24.987160,-7.573059
2021-05-05 11:38:25.002790,-10.66315
2021-05-05 11:38:25.018410,-18.32687
2021-05-05 11:38:25.034040,-31.18396
2021-05-05 11:38:25.049660,-49.11685
2021-05-05 11:38:25.065290,-71.15906
2021-05-05 11:38:25.080910,-95.71811
2021-05-05 11:38:25.096540,-120.99
2021-05-05 11:38:25.112170,-145.3508
2021-05-05 11:38:25.127790,-167.4799
2021-05-05 11:38:25.143420,-186.2383
2021-05-05 11:38:25.159040,-200.5444
2021-05-05 11:38:25.174670,-209.4165
2021-05-05 11:38:25.190300,-212.3292
2021-05-05 11:38:25.205920,-209.7021
2021-05-05 11:38:25.221550,-203.1344
2021-05-05 11:38:25.237170,-195.1918
2021-05-05 11:38:25.252800,-188.7136
2021-05-05 11:38:25.268420,-185.8881
2021-05-05 11:38:25.284050,-187.5358
2021-05-05 11:38:25.299680,-192.8977
2021-05-05 11:38:25.315300,-200.0191
2021-05-05 11:38:25.330930,-206.5961
2021-05-05 11:38:25.346550,-210.7964
2021-05-05 11:38:25.362180,-211.7719
2021-05-05 11:38:25.377800,-209.5638
2021-05-05 11:38:25.393430,-204.6177
2021-05-05 11:38:25.409060,-197.1203
2021-05-05 11:38:25.424680,-186.5646
2021-05-05 11:38:25.440310,-171.8991
2021-05-05 11:38:25.455930,-152.0397
2021-05-05 11:38:25.471560,-126.5729
2021-05-05 11:38:25.487180,-96.14561
2021-05-05 11:38:25.502810,-62.38037
2021-05-05 11:38:25.518440,-27.36497
2021-05-05 11:38:25.534060,6.922485
2021-05-05 11:38:25.549690,39.01367
2021-05-05 11:38:25.565310,67.98152
2021-05-05 11:38:25.580940,93.3102
2021-05-05 11:38:25.596560,114.724
2021-05-05 11:38:25.612190,132.1376
2021-05-05 11:38:25.627820,145.6998
2021-05-05 11:38:25.643440,155.8235
2021-05-05 11:38:25.659070,163.0899
2021-05-05 11:38:25.674690,168.0452
2021-05-05 11:38:25.690320,171.0836
2021-05-05 11:38:25.705940,172.3425
2021-05-05 11:38:25.721570,171.8904
2021-05-05 11:38:25.737200,169.8866
2021-05-05 11:38:25.752820,166.7082
2021-05-05 11:38:25.768450,162.9901
2021-05-05 11:38:25.784070,159.5331
2021-05-05 11:38:25.799700,157.0426
2021-05-05 11:38:25.815320,155.7505
2021-05-05 11:38:25.830950,155.1166
2021-05-05 11:38:25.846580,153.8574
2021-05-05 11:38:25.862200,150.3916
2021-05-05 11:38:25.877830,143.6012
2021-05-05 11:38:25.893450,133.4738
2021-05-05 11:38:25.909080,121.2634
2021-05-05 11:38:25.924700,108.9708
2021-05-05 11:38:25.940330,98.50925
2021-05-05 11:38:25.955960,90.87328
2021-05-05 11:38:25.971580,85.85086
2021-05-05 11:38:25.987210,82.35864
2021-05-05 11:38:26.002830,79.11737
2021-05-05 11:38:26.018460,75.29187
2021-05-05 11:38:26.034080,70.69565
2021-05-05 11:38:26.049710,65.59363
2021-05-05 11:38:26.065340,60.27402
2021-05-05 11:38:26.080960,54.88013
2021-05-05 11:38:26.096590,49.44507
2021-05-05 11:38:26.112210,44.17316
2021-05-05 11:38:26.127840,39.6192
2021-05-05 11:38:26.159090,35.81686
2021-05-05 11:38:26.174720,37.4425
2021-05-05 11:38:26.190340,40.92224
2021-05-05 11:38:26.205970,44.97534
2021-05-05 11:38:26.221590,48.11496
2021-05-05 11:38:26.237220,49.22421
2021-05-05 11:38:26.252840,48.02502
2021-05-05 11:38:26.268470,45.15179
2021-05-05 11:38:26.284100,41.82574
2021-05-05 11:38:26.299720,39.29843
2021-05-05 11:38:26.315350,38.38385
2021-05-05 11:38:26.330970,39.27328
2021-05-05 11:38:26.346600,41.65765
2021-05-05 11:38:26.362220,45.03888
2021-05-05 11:38:26.377850,48.96167
2021-05-05 11:38:26.393480,53.05679
2021-05-05 11:38:26.409100,56.93903
2021-05-05 11:38:26.424730,60.04688
2021-05-05 11:38:26.440350,61.66589
2021-05-05 11:38:26.455980,61.12012
2021-05-05 11:38:26.471600,58.09583
2021-05-05 11:38:26.487230,52.8446
2021-05-05 11:38:26.502860,46.17343
2021-05-05 11:38:26.518480,39.14761
2021-05-05 11:38:26.534110,32.68124
2021-05-05 11:38:26.549730,27.22827
2021-05-05 11:38:26.565360,22.70224
2021-05-05 11:38:26.580980,18.67139
2021-05-05 11:38:26.596610,14.62915
2021-05-05 11:38:26.612240,10.23407
2021-05-05 11:38:26.627860,5.332275
2021-05-05 11:38:26.643490,-0.07214355
2021-05-05 11:38:26.659110,-5.91571
2021-05-05 11:38:26.674740,-12.10712
2021-05-05 11:38:26.690360,-18.49557
2021-05-05 11:38:26.705990,-24.83578
2021-05-05 11:38:26.721620,-30.81967
2021-05-05 11:38:26.737240,-36.16501
2021-05-05 11:38:26.752870,-40.72723
2021-05-05 11:38:26.768490,-44.54001
2021-05-05 11:38:26.784120,-47.77011
2021-05-05 11:38:26.799740,-50.63846
2021-05-05 11:38:26.815370,-53.30415
2021-05-05 11:38:26.831000,-55.7662
2021-05-05 11:38:26.846620,-57.84224
2021-05-05 11:38:26.862250,-59.19617
2021-05-05 11:38:26.877870,-59.41364
2021-05-05 11:38:26.893500,-58.11526
2021-05-05 11:38:26.909120,-55.11203
2021-05-05 11:38:26.924750,-50.47888
2021-05-05 11:38:26.940380,-44.58115
2021-05-05 11:38:26.956000,-37.97557
2021-05-05 11:38:26.971630,-31.28828
2021-05-05 11:38:26.987250,-25.05377
2021-05-05 11:38:27.002880,-19.62135
2021-05-05 11:38:27.018500,-15.11183
2021-05-05 11:38:27.034130,-11.46037
2021-05-05 11:38:27.049760,-8.478119
2021-05-05 11:38:27.065380,-5.939545
2021-05-05 11:38:27.081010,-3.650345
2021-05-05 11:38:27.096630,-1.447052
2021-05-05 11:38:27.112260,0.8431549
2021-05-05 11:38:27.127880,3.404358
2021-05-05 11:38:27.143510,6.435516
2021-05-05 11:38:27.159140,10.01625
2021-05-05 11:38:27.174760,13.99384
2021-05-05 11:38:27.190390,17.86052
2021-05-05 11:38:27.206010,20.88553
2021-05-05 11:38:27.221640,22.33995
2021-05-05 11:38:27.237260,21.8476
2021-05-05 11:38:27.252890,19.54828
2021-05-05 11:38:27.268520,16.07741
2021-05-05 11:38:27.284140,12.25807
2021-05-05 11:38:27.299770,8.764297
2021-05-05 11:38:27.315390,5.862747
2021-05-05 11:38:27.331020,3.417801
2021-05-05 11:38:27.346650,1.086411
2021-05-05 11:38:27.362270,-1.466003
2021-05-05 11:38:27.377900,-4.369385
2021-05-05 11:38:27.393520,-7.604584
2021-05-05 11:38:27.409150,-11.0686
2021-05-05 11:38:27.424770,-14.68185
2021-05-05 11:38:27.440400,-18.42183
2021-05-05 11:38:27.456030,-22.26994
2021-05-05 11:38:27.471650,-26.12138
2021-05-05 11:38:27.487280,-29.6759
2021-05-05 11:38:27.502900,-32.48024
2021-05-05 11:38:27.518530,-34.05952
2021-05-05 11:38:27.534150,-34.11205
2021-05-05 11:38:27.549780,-32.68329
2021-05-05 11:38:27.565410,-30.26019
2021-05-05 11:38:27.581030,-27.57784
2021-05-05 11:38:27.596660,-25.26909
2021-05-05 11:38:27.612280,-23.46924
2021-05-05 11:38:27.627910,-21.61604
2021-05-05 11:38:27.643530,-18.61694
2021-05-05 11:38:27.659160,-13.34021
2021-05-05 11:38:27.674790,-5.183273
2021-05-05 11:38:27.690410,5.591782
2021-05-05 11:38:27.706040,17.97455
2021-05-05 11:38:27.721660,30.60597
2021-05-05 11:38:27.737290,42.2796
2021-05-05 11:38:27.752910,52.11705
2021-05-05 11:38:27.768540,59.62184
2021-05-05 11:38:27.784170,64.45113
2021-05-05 11:38:27.799790,66.37938
2021-05-05 11:38:27.815420,65.403
2021-05-05 11:38:27.831040,61.95193
2021-05-05 11:38:27.846670,56.87207
2021-05-05 11:38:27.862290,51.12872
2021-05-05 11:38:27.877920,45.46867
2021-05-05 11:38:27.893550,40.0455
2021-05-05 11:38:27.909170,34.52311
2021-05-05 11:38:27.924800,28.47162
2021-05-05 11:38:27.940420,21.80842
2021-05-05 11:38:27.956050,14.95512
2021-05-05 11:38:27.971670,8.638924
2021-05-05 11:38:27.987300,3.456535
2021-05-05 11:38:28.002930,-0.4714127
2021-05-05 11:38:28.018550,-3.506088
2021-05-05 11:38:28.034180,-6.21727
2021-05-05 11:38:28.049800,-8.982178
2021-05-05 11:38:28.065430,-11.82122
2021-05-05 11:38:28.081050,-14.44823
2021-05-05 11:38:28.096680,-16.52896
2021-05-05 11:38:28.112310,-17.90757
2021-05-05 11:38:28.127930,-18.6857
2021-05-05 11:38:28.143560,-19.12207
2021-05-05 11:38:28.159180,-19.46735
2021-05-05 11:38:28.174810,-19.89365
2021-05-05 11:38:28.190430,-20.49572
2021-05-05 11:38:28.206060,-21.32558
2021-05-05 11:38:28.221690,-22.42455
2021-05-05 11:38:28.237310,-23.78378
2021-05-05 11:38:28.252940,-25.35706
2021-05-05 11:38:28.268560,-27.0349
2021-05-05 11:38:28.284190,-28.72272
2021-05-05 11:38:28.299810,-30.40737
2021-05-05 11:38:28.315440,-32.20555
2021-05-05 11:38:28.331070,-34.2995
2021-05-05 11:38:28.346690,-36.85883
2021-05-05 11:38:28.362320,-39.89173
2021-05-05 11:38:28.377940,-43.17293
2021-05-05 11:38:28.393570,-46.20567
2021-05-05 11:38:28.409190,-48.33782
2021-05-05 11:38:28.424820,-48.91884
2021-05-05 11:38:28.440450,-47.48635
2021-05-05 11:38:28.456070,-43.86866
2021-05-05 11:38:28.471700,-38.19562
2021-05-05 11:38:28.487320,-30.80336
2021-05-05 11:38:28.502950,-22.16701
2021-05-05 11:38:28.518570,-12.86504
2021-05-05 11:38:28.534200,-3.545403
2021-05-05 11:38:28.549830,5.123928
2021-05-05 11:38:28.565450,12.54438
2021-05-05 11:38:28.581080,18.35373
2021-05-05 11:38:28.596700,22.52382
2021-05-05 11:38:28.612330,25.36176
2021-05-05 11:38:28.627950,27.32119
2021-05-05 11:38:28.643580,28.7941
2021-05-05 11:38:28.659210,29.93077
2021-05-05 11:38:28.674830,30.65047
2021-05-05 11:38:28.690460,30.76511
2021-05-05 11:38:28.706080,30.17067
2021-05-05 11:38:28.721710,28.96865
2021-05-05 11:38:28.737330,27.44181
2021-05-05 11:38:28.752960,25.92575
2021-05-05 11:38:28.768590,24.67584
2021-05-05 11:38:28.784210,23.79264
2021-05-05 11:38:28.799840,23.25013
2021-05-05 11:38:28.815460,22.91417
2021-05-05 11:38:28.831090,22.58537
2021-05-05 11:38:28.846710,22.01528
2021-05-05 11:38:28.862340,20.98171
2021-05-05 11:38:28.877970,19.33129
2021-05-05 11:38:28.893590,17.09086
2021-05-05 11:38:28.909220,14.4659
2021-05-05 11:38:28.924840,11.77027
2021-05-05 11:38:28.940470,9.270985
2021-05-05 11:38:28.956090,7.091118
2021-05-05 11:38:28.971720,5.114414
2021-05-05 11:38:28.987350,3.035706
2021-05-05 11:38:29.002970,0.4438305
2021-05-05 11:38:29.018600,-3.052595
2021-05-05 11:38:29.034220,-7.658829
2021-05-05 11:38:29.049850,-13.2368
2021-05-05 11:38:29.065470,-19.22712
2021-05-05 11:38:29.081100,-24.70175
2021-05-05 11:38:29.096730,-28.57181
2021-05-05 11:38:29.112350,-29.94337
2021-05-05 11:38:29.127980,-28.53193
2021-05-05 11:38:29.143600,-24.82605
2021-05-05 11:38:29.159230,-19.99912
2021-05-05 11:38:29.174850,-15.49063
2021-05-05 11:38:29.190480,-12.52455
2021-05-05 11:38:29.206110,-11.77497
2021-05-05 11:38:29.221730,-13.28871
2021-05-05 11:38:29.237360,-16.61269
2021-05-05 11:38:29.252980,-21.02681
2021-05-05 11:38:29.268610,-25.69764
2021-05-05 11:38:29.284230,-29.81141
2021-05-05 11:38:29.299860,-32.64568
2021-05-05 11:38:29.315490,-33.75632
2021-05-05 11:38:29.331110,-33.10801
2021-05-05 11:38:29.346740,-31.16014
2021-05-05 11:38:29.362360,-28.68343
2021-05-05 11:38:29.377990,-26.47893
2021-05-05 11:38:29.393610,-24.996
2021-05-05 11:38:29.409240,-24.15572
2021-05-05 11:38:29.424870,-23.43596
2021-05-05 11:38:29.440490,-22.17385
2021-05-05 11:38:29.456120,-19.89333
2021-05-05 11:38:29.471740,-16.51702
2021-05-05 11:38:29.487370,-12.34122
2021-05-05 11:38:29.502990,-7.896618
2021-05-05 11:38:29.518620,-3.721506
2021-05-05 11:38:29.534250,-0.2764263
2021-05-05 11:38:29.549870,2.051373
2021-05-05 11:38:29.565500,2.892637
2021-05-05 11:38:29.581120,1.933582
2021-05-05 11:38:29.596750,-0.952404
2021-05-05 11:38:29.628000,-11.07385
2021-05-05 11:38:29.643630,-16.83905
2021-05-05 11:38:29.659250,-22.17984
2021-05-05 11:38:29.674880,-27.03136
2021-05-05 11:38:29.690500,-32.03885
2021-05-05 11:38:29.706130,-38.36819
2021-05-05 11:38:29.721760,-47.14972
2021-05-05 11:38:29.737380,-58.85894
2021-05-05 11:38:29.753010,-72.83944
2021-05-05 11:38:29.768630,-87.20509
2021-05-05 11:38:29.784260,-99.29448
2021-05-05 11:38:29.799880,-106.4714
2021-05-05 11:38:29.815510,-107.0801
2021-05-05 11:38:29.831140,-101.0374
2021-05-05 11:38:29.846760,-89.91638
2021-05-05 11:38:29.862390,-76.3447
2021-05-05 11:38:29.878010,-63.04232
2021-05-05 11:38:29.893640,-51.93381
2021-05-05 11:38:29.909260,-43.72488
2021-05-05 11:38:29.924890,-38.05625
2021-05-05 11:38:29.940520,-34.03487
2021-05-05 11:38:29.956140,-30.71783
2021-05-05 11:38:29.971770,-27.39722
2021-05-05 11:38:29.987390,-23.565
2021-05-05 11:38:30.003020,-18.90891
2021-05-05 11:38:30.018640,-13.34195
2021-05-05 11:38:30.034270,-7.160904
2021-05-05 11:38:30.049900,-1.037689
2021-05-05 11:38:30.065520,4.15538
2021-05-05 11:38:30.081150,7.78508
2021-05-05 11:38:30.096770,9.761292
2021-05-05 11:38:30.112400,10.60362
2021-05-05 11:38:30.128020,11.15065
2021-05-05 11:38:30.143650,12.04857
2021-05-05 11:38:30.159280,13.49817
2021-05-05 11:38:30.174900,15.29315
2021-05-05 11:38:30.190530,17.11797
2021-05-05 11:38:30.206150,18.80872
2021-05-05 11:38:30.221780,20.44571
2021-05-05 11:38:30.237400,22.17294
2021-05-05 11:38:30.253030,23.98509
2021-05-05 11:38:30.268660,25.66002
2021-05-05 11:38:30.284280,26.86143
2021-05-05 11:38:30.299910,27.30663
2021-05-05 11:38:30.315530,26.89331
2021-05-05 11:38:30.331160,25.70694
2021-05-05 11:38:30.346780,23.95801
2021-05-05 11:38:30.362410,21.918
2021-05-05 11:38:30.378040,19.89587
2021-05-05 11:38:30.393660,18.21378
2021-05-05 11:38:30.409290,17.15149
2021-05-05 11:38:30.424910,16.83096
2021-05-05 11:38:30.440540,17.15573
2021-05-05 11:38:30.456160,17.87201
2021-05-05 11:38:30.471790,18.66898
2021-05-05 11:38:30.487420,19.29276
2021-05-05 11:38:30.503040,19.55988
2021-05-05 11:38:30.518670,19.36353
2021-05-05 11:38:30.534290,18.69208
2021-05-05 11:38:30.549920,17.70602
2021-05-05 11:38:30.565540,16.74146
2021-05-05 11:38:30.581170,16.21228
2021-05-05 11:38:30.596800,16.34705
2021-05-05 11:38:30.612420,16.97925
2021-05-05 11:38:30.628050,17.51413
2021-05-05 11:38:30.643670,17.2453
2021-05-05 11:38:30.659300,15.86337
2021-05-05 11:38:30.674920,13.7988
2021-05-05 11:38:30.690550,12.12067
2021-05-05 11:38:30.706180,11.93317
2021-05-05 11:38:30.721800,13.66238
2021-05-05 11:38:30.737430,16.71716
2021-05-05 11:38:30.753050,19.76111
2021-05-05 11:38:30.768680,21.51743
2021-05-05 11:38:30.784300,21.51007
2021-05-05 11:38:30.799930,20.30313
2021-05-05 11:38:30.815560,19.05334
2021-05-05 11:38:30.831180,18.72842
2021-05-05 11:38:30.846810,19.5069
2021-05-05 11:38:30.862430,20.79968
2021-05-05 11:38:30.878060,21.74731
2021-05-05 11:38:30.893680,21.87268
2021-05-05 11:38:30.909310,21.41437
2021-05-05 11:38:30.924940,21.0687
2021-05-05 11:38:30.940560,21.38367
2021-05-05 11:38:30.956190,22.2785
2021-05-05 11:38:30.971810,23.03571
2021-05-05 11:38:30.987440,22.81186
2021-05-05 11:38:31.003060,21.24619
2021-05-05 11:38:31.018690,18.75735
2021-05-05 11:38:31.034320,16.26263
2021-05-05 11:38:31.049940,14.5928
2021-05-05 11:38:31.065570,13.91971
2021-05-05 11:38:31.081190,13.72723
2021-05-05 11:38:31.096820,13.19467
2021-05-05 11:38:31.112440,11.83575
2021-05-05 11:38:31.128070,9.780151
2021-05-05 11:38:31.143700,7.684631
2021-05-05 11:38:31.159320,6.256653
2021-05-05 11:38:31.174950,5.809448
2021-05-05 11:38:31.190570,6.108643
2021-05-05 11:38:31.206200,6.642639
2021-05-05 11:38:31.221820,7.02948
2021-05-05 11:38:31.237450,7.288391
2021-05-05 11:38:31.253080,7.784363
2021-05-05 11:38:31.268700,8.866943
2021-05-05 11:38:31.284330,10.54962
2021-05-05 11:38:31.299950,12.39587
2021-05-05 11:38:31.315580,13.76099
2021-05-05 11:38:31.331200,14.13782
2021-05-05 11:38:31.346830,13.45251
2021-05-05 11:38:31.362460,12.09766
2021-05-05 11:38:31.378080,10.67334
2021-05-05 11:38:31.393710,9.689941
2021-05-05 11:38:31.409330,9.294495
2021-05-05 11:38:31.424960,9.280334
2021-05-05 11:38:31.440580,9.23468
2021-05-05 11:38:31.456210,8.80188
2021-05-05 11:38:31.471840,7.906311
2021-05-05 11:38:31.487460,6.857056
2021-05-05 11:38:31.503090,6.226624
2021-05-05 11:38:31.518710,6.619751
2021-05-05 11:38:31.534340,8.427795
2021-05-05 11:38:31.549960,11.64124
2021-05-05 11:38:31.565590,15.88721
2021-05-05 11:38:31.581220,20.60431
2021-05-05 11:38:31.596840,25.28198
2021-05-05 11:38:31.612470,29.67981
2021-05-05 11:38:31.628090,33.81372
2021-05-05 11:38:31.643720,37.80536
2021-05-05 11:38:31.659340,41.61163
2021-05-05 11:38:31.674970,44.89594
2021-05-05 11:38:31.690600,47.02386
2021-05-05 11:38:31.706220,47.35773
2021-05-05 11:38:31.721850,45.54852
2021-05-05 11:38:31.737470,41.78815
2021-05-05 11:38:31.753100,36.75293
2021-05-05 11:38:31.768720,31.38336
2021-05-05 11:38:31.784350,26.52649
2021-05-05 11:38:31.799980,22.64642
2021-05-05 11:38:31.815600,19.7243
2021-05-05 11:38:31.831230,17.3504
2021-05-05 11:38:31.846850,15.03839
2021-05-05 11:38:31.862480,12.53705
2021-05-05 11:38:31.878100,10.07239
2021-05-05 11:38:31.893730,8.300598
2021-05-05 11:38:31.909360,8.076294
2021-05-05 11:38:31.924980,10.03052
2021-05-05 11:38:31.940610,14.30048
2021-05-05 11:38:31.956230,20.46454
2021-05-05 11:38:31.971860,27.76196
2021-05-05 11:38:31.987480,35.44562
2021-05-05 11:38:32.003110,42.92792
2021-05-05 11:38:32.018740,49.72833
2021-05-05 11:38:32.034360,55.25641
2021-05-05 11:38:32.049990,58.76447
2021-05-05 11:38:32.065610,59.63733
2021-05-05 11:38:32.081240,57.87384
2021-05-05 11:38:32.096860,54.39685
2021-05-05 11:38:32.112490,50.81445
2021-05-05 11:38:32.128120,48.7392
2021-05-05 11:38:32.143740,48.99768
2021-05-05 11:38:32.159370,51.28278
2021-05-05 11:38:32.174990,54.40094
2021-05-05 11:38:32.190620,56.96356
2021-05-05 11:38:32.206250,57.98257
2021-05-05 11:38:32.221870,56.98624
2021-05-05 11:38:32.237500,53.73596
2021-05-05 11:38:32.253120,47.76834
2021-05-05 11:38:32.268750,38.34146
2021-05-05 11:38:32.284370,24.88962
2021-05-05 11:38:32.300000,7.843079
2021-05-05 11:38:32.315630,-10.90881
2021-05-05 11:38:32.331250,-28.28201
2021-05-05 11:38:32.346880,-41.13
2021-05-05 11:38:32.362500,-47.62109
2021-05-05 11:38:32.378130,-48.10272
2021-05-05 11:38:32.393750,-44.99579
2021-05-05 11:38:32.409380,-41.67929
2021-05-05 11:38:32.425010,-41.02969
2021-05-05 11:38:32.440630,-44.2543
2021-05-05 11:38:32.456260,-50.74121
2021-05-05 11:38:32.471880,-58.70145
2021-05-05 11:38:32.487510,-66.30688
2021-05-05 11:38:32.503130,-72.55087
2021-05-05 11:38:32.518760,-77.37759
2021-05-05 11:38:32.534390,-81.17368
2021-05-05 11:38:32.550010,-84.08023
2021-05-05 11:38:32.565640,-85.65372
2021-05-05 11:38:32.581260,-85.08182
2021-05-05 11:38:32.596890,-81.73404
2021-05-05 11:38:32.612510,-75.68787
2021-05-05 11:38:32.628140,-67.78537
2021-05-05 11:38:32.643770,-59.28101
2021-05-05 11:38:32.659390,-51.2818
2021-05-05 11:38:32.675020,-44.29211
2021-05-05 11:38:32.690640,-38.09979
2021-05-05 11:38:32.706270,-31.96274
2021-05-05 11:38:32.721890,-25.06158
2021-05-05 11:38:32.737520,-16.86142
2021-05-05 11:38:32.753150,-7.26239
2021-05-05 11:38:32.768770,3.442261
2021-05-05 11:38:32.784400,14.776
2021-05-05 11:38:32.800020,26.23376
2021-05-05 11:38:32.815650,37.32755
2021-05-05 11:38:32.831270,47.53922
2021-05-05 11:38:32.846900,56.31229
2021-05-05 11:38:32.862530,63.17941
2021-05-05 11:38:32.878150,68.00864
2021-05-05 11:38:32.893780,71.19537
2021-05-05 11:38:32.909400,73.58456
2021-05-05 11:38:32.925030,76.01697
2021-05-05 11:38:32.940650,78.74387
2021-05-05 11:38:32.956280,81.03162
2021-05-05 11:38:32.971910,81.35907
2021-05-05 11:38:33.003160,71.00247
2021-05-05 11:38:33.018780,60.4848
2021-05-05 11:38:33.034410,48.49341
2021-05-05 11:38:33.050030,36.94226
2021-05-05 11:38:33.065660,26.83786
2021-05-05 11:38:33.081290,17.96857
2021-05-05 11:38:33.096910,9.4552
2021-05-05 11:38:33.112540,0.6809082
2021-05-05 11:38:33.128160,-8.110779
2021-05-05 11:38:33.143790,-16.05072
2021-05-05 11:38:33.159410,-22.52792
2021-05-05 11:38:33.175040,-27.99893
2021-05-05 11:38:33.190670,-34.0719
2021-05-05 11:38:33.206290,-42.58957
2021-05-05 11:38:33.221920,-54.39609
2021-05-05 11:38:33.237540,-68.4863
2021-05-05 11:38:33.253170,-82.27136
2021-05-05 11:38:33.268790,-92.79129
2021-05-05 11:38:33.284420,-98.06339
2021-05-05 11:38:33.300050,-97.85831
2021-05-05 11:38:33.315670,-93.46008
2021-05-05 11:38:33.331300,-86.77863
2021-05-05 11:38:33.346920,-79.33588
2021-05-05 11:38:33.362550,-71.8378
2021-05-05 11:38:33.378170,-64.32809
2021-05-05 11:38:33.393800,-56.65402
2021-05-05 11:38:33.409430,-48.78333
2021-05-05 11:38:33.425050,-40.83226
2021-05-05 11:38:33.440680,-32.82256
2021-05-05 11:38:33.456300,-24.51201
2021-05-05 11:38:33.471930,-15.49667
2021-05-05 11:38:33.487550,-5.478592
2021-05-05 11:38:33.503180,5.402298
2021-05-05 11:38:33.518810,16.40227
2021-05-05 11:38:33.534430,26.39819
2021-05-05 11:38:33.550060,34.27596
2021-05-05 11:38:33.565680,39.39594
2021-05-05 11:38:33.581310,41.77359
2021-05-05 11:38:33.596930,42.06291
2021-05-05 11:38:33.612560,41.24461
2021-05-05 11:38:33.628190,40.263
2021-05-05 11:38:33.643810,39.77332
2021-05-05 11:38:33.659440,40.03206
2021-05-05 11:38:33.675060,40.99254
2021-05-05 11:38:33.690690,42.45235
2021-05-05 11:38:33.706310,44.22726
2021-05-05 11:38:33.721940,46.22859
2021-05-05 11:38:33.737570,48.48947
2021-05-05 11:38:33.753190,51.08463
2021-05-05 11:38:33.768820,54.0155
2021-05-05 11:38:33.784440,57.11673
2021-05-05 11:38:33.800070,59.97408
2021-05-05 11:38:33.815690,61.94479
2021-05-05 11:38:33.831320,62.26425
2021-05-05 11:38:33.846950,60.27614
2021-05-05 11:38:33.862570,55.68028
2021-05-05 11:38:33.878200,48.70667
2021-05-05 11:38:33.893820,40.07062
2021-05-05 11:38:33.909450,30.79709
2021-05-05 11:38:33.925070,21.89917
2021-05-05 11:38:33.940700,14.16208
2021-05-05 11:38:33.956330,8.071075
2021-05-05 11:38:33.971950,3.85701
2021-05-05 11:38:33.987580,1.601151
2021-05-05 11:38:34.003200,1.212418
2021-05-05 11:38:34.018830,2.330231
2021-05-05 11:38:34.034450,4.217285
2021-05-05 11:38:34.050080,5.866531
2021-05-05 11:38:34.065710,6.291321
2021-05-05 11:38:34.081330,4.908875
2021-05-05 11:38:34.096960,1.787735
2021-05-05 11:38:34.112580,-2.429565
2021-05-05 11:38:34.128210,-6.885399
2021-05-05 11:38:34.143830,-10.92878
2021-05-05 11:38:34.159460,-14.34118
2021-05-05 11:38:34.175090,-17.28983
2021-05-05 11:38:34.190710,-20.06178
2021-05-05 11:38:34.206340,-22.82909
2021-05-05 11:38:34.237590,-28.23396
2021-05-05 11:38:34.253210,-30.7957
2021-05-05 11:38:34.268840,-33.44423
2021-05-05 11:38:34.284470,-36.37923
2021-05-05 11:38:34.300090,-39.64205
2021-05-05 11:38:34.315720,-42.99151
2021-05-05 11:38:34.331340,-45.95768
2021-05-05 11:38:34.346970,-48.11442
2021-05-05 11:38:34.362590,-49.28379
2021-05-05 11:38:34.378220,-49.65897
2021-05-05 11:38:34.393850,-49.71064
2021-05-05 11:38:34.409470,-49.93375
2021-05-05 11:38:34.425100,-50.62619
2021-05-05 11:38:34.440720,-51.821
2021-05-05 11:38:34.456350,-53.40122
2021-05-05 11:38:34.471980,-55.27951
2021-05-05 11:38:34.487600,-57.50634
2021-05-05 11:38:34.503230,-60.17658
2021-05-05 11:38:34.518850,-63.22669
2021-05-05 11:38:34.534480,-66.30812
2021-05-05 11:38:34.550100,-68.85394
2021-05-05 11:38:34.565730,-70.36571
2021-05-05 11:38:34.581360,-70.69067
2021-05-05 11:38:34.596980,-70.10455
2021-05-05 11:38:34.612610,-69.11703
2021-05-05 11:38:34.628230,-68.11014
2021-05-05 11:38:34.643860,-67.0463
2021-05-05 11:38:34.659480,-65.44022
2021-05-05 11:38:34.675110,-62.62072
2021-05-05 11:38:34.690740,-58.1306
2021-05-05 11:38:34.706360,-52.05558
2021-05-05 11:38:34.721990,-45.04662
2021-05-05 11:38:34.737610,-38.08214
2021-05-05 11:38:34.753240,-32.01151
2021-05-05 11:38:34.768860,-27.25226
2021-05-05 11:38:34.784490,-23.66353
2021-05-05 11:38:34.800120,-20.73245
2021-05-05 11:38:34.815740,-17.89311
2021-05-05 11:38:34.831370,-14.81509
2021-05-05 11:38:34.846990,-11.5559
2021-05-05 11:38:34.862620,-8.420513
2021-05-05 11:38:34.878240,-5.720798
2021-05-05 11:38:34.893870,-3.519028
2021-05-05 11:38:34.909500,-1.594147
2021-05-05 11:38:34.925120,0.4259109
2021-05-05 11:38:34.940750,2.760201
2021-05-05 11:38:34.956370,5.270615
2021-05-05 11:38:34.972000,7.545265
2021-05-05 11:38:34.987620,9.09494
2021-05-05 11:38:35.003250,9.694893
2021-05-05 11:38:35.018880,9.45948
2021-05-05 11:38:35.034500,8.776031
2021-05-05 11:38:35.050130,8.027046
2021-05-05 11:38:35.065750,7.378754
2021-05-05 11:38:35.081380,6.705917
2021-05-05 11:38:35.097000,5.757126
2021-05-05 11:38:35.112630,4.384834
2021-05-05 11:38:35.128260,2.709015
2021-05-05 11:38:35.143880,1.140747
2021-05-05 11:38:35.159510,0.2320786
2021-05-05 11:38:35.175130,0.4489441
2021-05-05 11:38:35.190760,2.00425
2021-05-05 11:38:35.206380,4.784172
2021-05-05 11:38:35.222010,8.452713
2021-05-05 11:38:35.237640,12.60121
2021-05-05 11:38:35.253260,16.91734
2021-05-05 11:38:35.268890,21.20874
2021-05-05 11:38:35.284510,25.39685
2021-05-05 11:38:35.315760,33.07021
2021-05-05 11:38:35.331390,36.12862
2021-05-05 11:38:35.347020,38.3289
2021-05-05 11:38:35.362640,39.53802
