Datetime,value
BVP
2021-05-07 12:02:59.903150,-43.51218
2021-05-07 12:02:59.918770,-46.81302
2021-05-07 12:02:59.934400,-47.3822
2021-05-07 12:02:59.950020,-44.40302
2021-05-07 12:02:59.965650,-37.71451
2021-05-07 12:02:59.981270,-27.92468
2021-05-07 12:02:59.996900,-16.30933
2021-05-07 12:03:00.012530,-4.362671
2021-05-07 12:03:00.028150,6.668396
2021-05-07 12:03:00.043780,16.09225
2021-05-07 12:03:00.059400,23.81738
2021-05-07 12:03:00.075030,30.10962
2021-05-07 12:03:00.090650,35.3136
2021-05-07 12:03:00.106280,39.58041
2021-05-07 12:03:00.121910,42.82571
2021-05-07 12:03:00.137530,44.80893
2021-05-07 12:03:00.153160,45.41168
2021-05-07 12:03:00.168780,44.72739
2021-05-07 12:03:00.184410,43.02692
2021-05-07 12:03:00.200030,40.69022
2021-05-07 12:03:00.215660,38.03793
2021-05-07 12:03:00.231290,35.26453
2021-05-07 12:03:00.246910,32.41632
2021-05-07 12:03:00.262540,29.41422
2021-05-07 12:03:00.278160,26.13916
2021-05-07 12:03:00.293790,22.5022
2021-05-07 12:03:00.309410,18.44333
2021-05-07 12:03:00.325040,13.97906
2021-05-07 12:03:00.340670,9.169708
2021-05-07 12:03:00.356290,4.158539
2021-05-07 12:03:00.371920,-0.8390503
2021-05-07 12:03:00.387540,-5.620789
2021-05-07 12:03:00.403170,-10.04391
2021-05-07 12:03:00.418790,-14.11508
2021-05-07 12:03:00.434420,-17.95328
2021-05-07 12:03:00.450050,-21.8187
2021-05-07 12:03:00.465670,-26.0127
2021-05-07 12:03:00.481300,-30.73199
2021-05-07 12:03:00.496920,-36.07129
2021-05-07 12:03:00.512550,-41.74997
2021-05-07 12:03:00.528170,-47.05392
2021-05-07 12:03:00.543800,-50.853
2021-05-07 12:03:00.559430,-51.8685
2021-05-07 12:03:00.575050,-49.11685
2021-05-07 12:03:00.590680,-42.28137
2021-05-07 12:03:00.606300,-32.06088
2021-05-07 12:03:00.621930,-19.88898
2021-05-07 12:03:00.637550,-7.669525
2021-05-07 12:03:00.653180,2.963287
2021-05-07 12:03:00.668810,11.11679
2021-05-07 12:03:00.684430,16.76797
2021-05-07 12:03:00.700060,20.47086
2021-05-07 12:03:00.715680,22.91135
2021-05-07 12:03:00.731310,24.54596
2021-05-07 12:03:00.746930,25.37485
2021-05-07 12:03:00.762560,25.15686
2021-05-07 12:03:00.778190,23.55219
2021-05-07 12:03:00.793810,20.58136
2021-05-07 12:03:00.809440,16.60486
2021-05-07 12:03:00.825060,12.31583
2021-05-07 12:03:00.840690,8.421783
2021-05-07 12:03:00.856310,5.457153
2021-05-07 12:03:00.871940,3.679443
2021-05-07 12:03:00.887570,3.001068
2021-05-07 12:03:00.903190,3.203644
2021-05-07 12:03:00.918820,3.908112
2021-05-07 12:03:00.934440,4.816528
2021-05-07 12:03:00.950070,5.626831
2021-05-07 12:03:00.965700,6.089935
2021-05-07 12:03:00.981320,5.959412
2021-05-07 12:03:00.996950,5.016968
2021-05-07 12:03:01.012570,3.218506
2021-05-07 12:03:01.028200,0.645874
2021-05-07 12:03:01.043820,-2.402679
2021-05-07 12:03:01.059450,-5.65271
2021-05-07 12:03:01.075080,-8.922485
2021-05-07 12:03:01.106330,-16.12662
2021-05-07 12:03:01.121950,-20.67935
2021-05-07 12:03:01.137580,-26.00388
2021-05-07 12:03:01.153200,-31.54514
2021-05-07 12:03:01.168830,-36.15775
2021-05-07 12:03:01.184460,-38.38708
2021-05-07 12:03:01.200080,-37.03214
2021-05-07 12:03:01.215710,-31.63412
2021-05-07 12:03:01.231330,-22.74728
2021-05-07 12:03:01.246960,-11.7851
2021-05-07 12:03:01.262580,-0.4758911
2021-05-07 12:03:01.278210,9.587433
2021-05-07 12:03:01.293840,17.49792
2021-05-07 12:03:01.309460,23.02789
2021-05-07 12:03:01.325090,26.55733
2021-05-07 12:03:01.340710,28.54695
2021-05-07 12:03:01.356340,29.36069
2021-05-07 12:03:01.371960,29.1245
2021-05-07 12:03:01.387590,27.87128
2021-05-07 12:03:01.403220,25.71681
2021-05-07 12:03:01.418840,22.97823
2021-05-07 12:03:01.434470,20.175
2021-05-07 12:03:01.450090,17.8185
2021-05-07 12:03:01.465720,16.30118
2021-05-07 12:03:01.481340,15.60042
2021-05-07 12:03:01.496970,15.34439
2021-05-07 12:03:01.512600,14.93965
2021-05-07 12:03:01.528220,13.8474
2021-05-07 12:03:01.543850,11.80208
2021-05-07 12:03:01.559470,8.914337
2021-05-07 12:03:01.575100,5.580429
2021-05-07 12:03:01.590720,2.247269
2021-05-07 12:03:01.606350,-0.7703857
2021-05-07 12:03:01.621980,-3.442917
2021-05-07 12:03:01.637600,-6.01442
2021-05-07 12:03:01.653230,-8.960449
2021-05-07 12:03:01.668850,-12.82088
2021-05-07 12:03:01.684480,-18.04472
2021-05-07 12:03:01.700100,-24.89275
2021-05-07 12:03:01.715730,-33.33177
2021-05-07 12:03:01.731360,-42.9052
2021-05-07 12:03:01.746980,-52.70154
2021-05-07 12:03:01.762610,-61.44952
2021-05-07 12:03:01.778230,-67.75165
2021-05-07 12:03:01.793860,-70.47485
2021-05-07 12:03:01.809480,-69.14958
2021-05-07 12:03:01.825110,-64.09877
2021-05-07 12:03:01.840740,-56.4203
2021-05-07 12:03:01.856360,-47.62228
2021-05-07 12:03:01.871990,-39.14813
2021-05-07 12:03:01.887610,-32.0313
2021-05-07 12:03:01.903240,-26.71884
2021-05-07 12:03:01.918860,-23.09103
2021-05-07 12:03:01.934490,-20.84062
2021-05-07 12:03:01.950120,-19.66719
2021-05-07 12:03:01.965740,-19.38297
2021-05-07 12:03:01.981370,-19.91539
2021-05-07 12:03:01.996990,-21.05717
2021-05-07 12:03:02.012620,-22.42238
2021-05-07 12:03:02.028240,-23.51418
2021-05-07 12:03:02.043870,-23.91328
2021-05-07 12:03:02.059500,-23.41386
2021-05-07 12:03:02.075120,-22.16583
2021-05-07 12:03:02.090750,-20.58449
2021-05-07 12:03:02.106370,-19.15443
2021-05-07 12:03:02.122000,-18.23182
2021-05-07 12:03:02.137620,-17.90898
2021-05-07 12:03:02.168880,-18.14977
2021-05-07 12:03:02.184500,-18.21444
2021-05-07 12:03:02.200130,-18.15528
2021-05-07 12:03:02.215750,-18.19189
2021-05-07 12:03:02.231380,-18.6729
2021-05-07 12:03:02.247000,-19.9329
2021-05-07 12:03:02.262630,-22.21861
2021-05-07 12:03:02.278260,-25.63213
2021-05-07 12:03:02.293880,-30.07986
2021-05-07 12:03:02.309510,-35.23181
2021-05-07 12:03:02.325130,-40.40089
2021-05-07 12:03:02.340760,-44.52305
2021-05-07 12:03:02.356380,-46.39531
2021-05-07 12:03:02.372010,-44.96553
2021-05-07 12:03:02.387640,-39.76393
2021-05-07 12:03:02.403260,-31.15258
2021-05-07 12:03:02.418890,-20.18225
2021-05-07 12:03:02.434510,-8.220519
2021-05-07 12:03:02.450140,3.568444
2021-05-07 12:03:02.465760,14.48496
2021-05-07 12:03:02.481390,24.34539
2021-05-07 12:03:02.497020,33.07854
2021-05-07 12:03:02.512640,40.49733
2021-05-07 12:03:02.528270,46.1567
2021-05-07 12:03:02.543890,49.57456
2021-05-07 12:03:02.559520,50.57983
2021-05-07 12:03:02.575140,49.59738
2021-05-07 12:03:02.590770,47.61776
2021-05-07 12:03:02.606400,45.85376
2021-05-07 12:03:02.622020,45.38373
2021-05-07 12:03:02.637650,46.70819
2021-05-07 12:03:02.653270,49.68904
2021-05-07 12:03:02.668900,53.68163
2021-05-07 12:03:02.684520,57.84907
2021-05-07 12:03:02.700150,61.3968
2021-05-07 12:03:02.715780,63.85113
2021-05-07 12:03:02.731400,65.02891
2021-05-07 12:03:02.747030,64.93231
2021-05-07 12:03:02.762650,63.61993
2021-05-07 12:03:02.778280,61.13232
2021-05-07 12:03:02.793900,57.45587
2021-05-07 12:03:02.809530,52.6445
2021-05-07 12:03:02.825160,46.84831
2021-05-07 12:03:02.840780,40.33572
2021-05-07 12:03:02.856410,33.43713
2021-05-07 12:03:02.872030,26.42905
2021-05-07 12:03:02.887660,19.44615
2021-05-07 12:03:02.903280,12.54095
2021-05-07 12:03:02.918910,5.908066
2021-05-07 12:03:02.934540,0.05018616
2021-05-07 12:03:02.950160,-4.102997
2021-05-07 12:03:02.965790,-5.587936
2021-05-07 12:03:02.981410,-3.7314
2021-05-07 12:03:02.997040,1.403076
2021-05-07 12:03:03.012660,8.931976
2021-05-07 12:03:03.028290,17.32414
2021-05-07 12:03:03.043920,24.93274
2021-05-07 12:03:03.059540,30.55614
2021-05-07 12:03:03.075170,33.74966
2021-05-07 12:03:03.090790,34.77422
2021-05-07 12:03:03.106420,34.23721
2021-05-07 12:03:03.122050,32.74139
2021-05-07 12:03:03.137670,30.60767
2021-05-07 12:03:03.153300,27.90533
2021-05-07 12:03:03.168920,24.58524
2021-05-07 12:03:03.184550,20.71919
2021-05-07 12:03:03.200170,16.56631
2021-05-07 12:03:03.215800,12.58261
2021-05-07 12:03:03.231430,9.201874
2021-05-07 12:03:03.247050,6.669022
2021-05-07 12:03:03.262680,4.939102
2021-05-07 12:03:03.278300,3.689896
2021-05-07 12:03:03.293930,2.441742
2021-05-07 12:03:03.309550,0.8323669
2021-05-07 12:03:03.325180,-1.252762
2021-05-07 12:03:03.340810,-3.628098
2021-05-07 12:03:03.356430,-5.90271
2021-05-07 12:03:03.372060,-7.689575
2021-05-07 12:03:03.387680,-8.790588
2021-05-07 12:03:03.403310,-9.284531
2021-05-07 12:03:03.418930,-9.491287
2021-05-07 12:03:03.434560,-9.844803
2021-05-07 12:03:03.450190,-10.73503
2021-05-07 12:03:03.465810,-12.41096
2021-05-07 12:03:03.481440,-14.91287
2021-05-07 12:03:03.497060,-18.12877
2021-05-07 12:03:03.512690,-21.69449
2021-05-07 12:03:03.528310,-24.94899
2021-05-07 12:03:03.543940,-27.01614
2021-05-07 12:03:03.559570,-26.94659
2021-05-07 12:03:03.575190,-24.0256
2021-05-07 12:03:03.590820,-18.10808
2021-05-07 12:03:03.606440,-9.694611
2021-05-07 12:03:03.622070,0.1686096
2021-05-07 12:03:03.637690,10.16756
2021-05-07 12:03:03.653320,19.13672
2021-05-07 12:03:03.668950,26.28899
2021-05-07 12:03:03.684570,31.34399
2021-05-07 12:03:03.700200,34.3632
2021-05-07 12:03:03.715820,35.64185
2021-05-07 12:03:03.731450,35.49785
2021-05-07 12:03:03.747070,34.23541
2021-05-07 12:03:03.762700,32.17354
2021-05-07 12:03:03.778330,29.66188
2021-05-07 12:03:03.793950,27.0981
2021-05-07 12:03:03.809580,24.82344
2021-05-07 12:03:03.825200,23.03406
2021-05-07 12:03:03.840830,21.636
2021-05-07 12:03:03.856450,20.33075
2021-05-07 12:03:03.872080,18.66432
2021-05-07 12:03:03.887710,16.29016
2021-05-07 12:03:03.903330,13.14668
2021-05-07 12:03:03.918960,9.527328
2021-05-07 12:03:03.934580,5.987686
2021-05-07 12:03:03.950210,3.052536
2021-05-07 12:03:03.965830,0.8954926
2021-05-07 12:03:03.981460,-0.7340546
2021-05-07 12:03:03.997090,-2.35321
2021-05-07 12:03:04.012710,-4.532211
2021-05-07 12:03:04.028340,-7.580765
2021-05-07 12:03:04.043960,-11.45093
2021-05-07 12:03:04.059590,-15.7556
2021-05-07 12:03:04.075210,-19.87608
2021-05-07 12:03:04.090840,-23.1508
2021-05-07 12:03:04.106470,-25.0029
2021-05-07 12:03:04.122090,-24.99075
2021-05-07 12:03:04.137720,-22.88736
2021-05-07 12:03:04.153340,-18.70651
2021-05-07 12:03:04.168970,-12.78401
2021-05-07 12:03:04.184590,-5.69899
2021-05-07 12:03:04.200220,1.74292
2021-05-07 12:03:04.215850,8.756119
2021-05-07 12:03:04.231470,14.64864
2021-05-07 12:03:04.247100,18.96597
2021-05-07 12:03:04.262720,21.53215
2021-05-07 12:03:04.278350,22.37544
2021-05-07 12:03:04.293970,21.72963
2021-05-07 12:03:04.309600,19.91467
2021-05-07 12:03:04.325230,17.34496
2021-05-07 12:03:04.340850,14.39101
2021-05-07 12:03:04.356480,11.45007
2021-05-07 12:03:04.372100,8.846024
2021-05-07 12:03:04.387730,6.811493
2021-05-07 12:03:04.403350,5.451096
2021-05-07 12:03:04.418980,4.692078
2021-05-07 12:03:04.434610,4.284653
2021-05-07 12:03:04.450230,3.902313
2021-05-07 12:03:04.465860,3.33876
2021-05-07 12:03:04.497110,1.40242
2021-05-07 12:03:04.512730,0.2563171
2021-05-07 12:03:04.528360,-0.9307251
2021-05-07 12:03:04.543990,-2.306244
2021-05-07 12:03:04.559610,-4.198105
2021-05-07 12:03:04.575240,-7.001846
2021-05-07 12:03:04.590860,-10.95435
2021-05-07 12:03:04.606490,-15.98569
2021-05-07 12:03:04.622110,-21.66125
2021-05-07 12:03:04.637740,-27.15964
2021-05-07 12:03:04.653370,-31.44656
2021-05-07 12:03:04.668990,-33.49265
2021-05-07 12:03:04.684620,-32.53836
2021-05-07 12:03:04.700240,-28.33466
2021-05-07 12:03:04.715870,-21.29404
2021-05-07 12:03:04.731490,-12.33038
2021-05-07 12:03:04.747120,-2.649521
2021-05-07 12:03:04.762750,6.685822
2021-05-07 12:03:04.778370,15.01563
2021-05-07 12:03:04.794000,22.18875
2021-05-07 12:03:04.809620,28.36394
2021-05-07 12:03:04.825250,33.67149
2021-05-07 12:03:04.840870,37.98106
2021-05-07 12:03:04.856500,40.82642
2021-05-07 12:03:04.872130,41.74582
2021-05-07 12:03:04.887750,40.72212
2021-05-07 12:03:04.903380,38.52649
2021-05-07 12:03:04.919000,36.58743
2021-05-07 12:03:04.934630,36.56039
2021-05-07 12:03:04.950250,39.45456
2021-05-07 12:03:04.965880,45.08575
2021-05-07 12:03:04.981510,51.96495
2021-05-07 12:03:04.997130,57.70827
2021-05-07 12:03:05.012760,59.9257
2021-05-07 12:03:05.028380,57.084
2021-05-07 12:03:05.044010,48.83559
2021-05-07 12:03:05.059630,35.99539
2021-05-07 12:03:05.075260,20.06342
2021-05-07 12:03:05.090890,2.707962
2021-05-07 12:03:05.106510,-14.49635
2021-05-07 12:03:05.122140,-30.15366
2021-05-07 12:03:05.137760,-43.00288
2021-05-07 12:03:05.153390,-52.00249
2021-05-07 12:03:05.169010,-56.50714
2021-05-07 12:03:05.184640,-56.47032
2021-05-07 12:03:05.200270,-52.39093
2021-05-07 12:03:05.215890,-45.09964
2021-05-07 12:03:05.231520,-35.42686
2021-05-07 12:03:05.247140,-23.94034
2021-05-07 12:03:05.262770,-10.92744
2021-05-07 12:03:05.278390,3.459747
2021-05-07 12:03:05.294020,18.90475
2021-05-07 12:03:05.309650,34.92735
2021-05-07 12:03:05.325270,51.02206
2021-05-07 12:03:05.340900,66.88097
2021-05-07 12:03:05.356520,82.47121
2021-05-07 12:03:05.372150,97.86293
2021-05-07 12:03:05.387770,112.9587
2021-05-07 12:03:05.403400,127.2747
2021-05-07 12:03:05.419030,139.9721
2021-05-07 12:03:05.434650,150.1259
2021-05-07 12:03:05.450280,157.1064
2021-05-07 12:03:05.465900,160.7339
2021-05-07 12:03:05.481530,161.3367
2021-05-07 12:03:05.497150,159.5901
2021-05-07 12:03:05.512780,156.3387
2021-05-07 12:03:05.528410,152.629
2021-05-07 12:03:05.544030,149.4575
2021-05-07 12:03:05.559660,147.5164
2021-05-07 12:03:05.575280,146.7307
2021-05-07 12:03:05.590910,145.9767
2021-05-07 12:03:05.606530,143.3706
2021-05-07 12:03:05.622160,137.0277
2021-05-07 12:03:05.637790,126.0799
2021-05-07 12:03:05.653410,111.1905
2021-05-07 12:03:05.669040,94.32047
2021-05-07 12:03:05.684660,77.75886
2021-05-07 12:03:05.700290,63.14834
2021-05-07 12:03:05.715910,50.94746
2021-05-07 12:03:05.731540,40.65935
2021-05-07 12:03:05.747170,31.75395
2021-05-07 12:03:05.762790,24.19434
2021-05-07 12:03:05.778420,18.4457
2021-05-07 12:03:05.794040,14.71442
2021-05-07 12:03:05.809670,12.22263
2021-05-07 12:03:05.825300,9.041336
2021-05-07 12:03:05.840920,2.746979
2021-05-07 12:03:05.856550,-8.460678
2021-05-07 12:03:05.872170,-25.01877
2021-05-07 12:03:05.887800,-45.73846
2021-05-07 12:03:05.903420,-68.46469
2021-05-07 12:03:05.919050,-90.90074
2021-05-07 12:03:05.934680,-111.3574
2021-05-07 12:03:05.950300,-128.9279
2021-05-07 12:03:05.965930,-143.4061
2021-05-07 12:03:05.981550,-154.9857
2021-05-07 12:03:05.997180,-164.0118
2021-05-07 12:03:06.012800,-170.9331
2021-05-07 12:03:06.028430,-176.0919
2021-05-07 12:03:06.044060,-179.6258
2021-05-07 12:03:06.059680,-181.4019
2021-05-07 12:03:06.075310,-181.0724
2021-05-07 12:03:06.090930,-178.3735
2021-05-07 12:03:06.106560,-173.4539
2021-05-07 12:03:06.122180,-167.0308
2021-05-07 12:03:06.137810,-160.107
2021-05-07 12:03:06.153440,-153.6876
2021-05-07 12:03:06.169060,-148.2318
2021-05-07 12:03:06.184690,-143.6214
2021-05-07 12:03:06.200310,-139.3139
2021-05-07 12:03:06.215940,-134.694
2021-05-07 12:03:06.231560,-129.5277
2021-05-07 12:03:06.247190,-124.0094
2021-05-07 12:03:06.262820,-118.5166
2021-05-07 12:03:06.278440,-113.3522
2021-05-07 12:03:06.294070,-108.6517
2021-05-07 12:03:06.309690,-104.3026
2021-05-07 12:03:06.325320,-100.0511
2021-05-07 12:03:06.340940,-95.62238
2021-05-07 12:03:06.356570,-90.62042
2021-05-07 12:03:06.372200,-84.60248
2021-05-07 12:03:06.387820,-77.11176
2021-05-07 12:03:06.403450,-67.72385
2021-05-07 12:03:06.419070,-56.29074
2021-05-07 12:03:06.434700,-43.12939
2021-05-07 12:03:06.450320,-28.95587
2021-05-07 12:03:06.465950,-14.68817
2021-05-07 12:03:06.481580,-1.235596
2021-05-07 12:03:06.497200,10.6814
2021-05-07 12:03:06.512830,20.46161
2021-05-07 12:03:06.528450,27.67233
2021-05-07 12:03:06.544080,32.26495
2021-05-07 12:03:06.559700,34.6777
2021-05-07 12:03:06.575330,35.88907
2021-05-07 12:03:06.590960,37.21957
2021-05-07 12:03:06.606580,39.85806
2021-05-07 12:03:06.622210,44.36725
2021-05-07 12:03:06.637830,50.44336
2021-05-07 12:03:06.653460,57.05573
2021-05-07 12:03:06.669080,62.91119
2021-05-07 12:03:06.684710,67.1402
2021-05-07 12:03:06.700340,69.64804
2021-05-07 12:03:06.715960,71.19662
2021-05-07 12:03:06.731590,72.95041
2021-05-07 12:03:06.747210,75.77301
2021-05-07 12:03:06.762840,79.78333
2021-05-07 12:03:06.778460,84.29468
2021-05-07 12:03:06.794090,88.20813
2021-05-07 12:03:06.809720,90.47137
2021-05-07 12:03:06.825340,90.50464
2021-05-07 12:03:06.840970,88.31912
2021-05-07 12:03:06.856590,84.42072
2021-05-07 12:03:06.872220,79.63596
2021-05-07 12:03:06.887840,74.9324
2021-05-07 12:03:06.903470,71.54892
2021-05-07 12:03:06.919100,70.87112
2021-05-07 12:03:06.934720,73.90179
2021-05-07 12:03:06.950350,80.49054
2021-05-07 12:03:06.965970,88.80414
2021-05-07 12:03:06.981600,95.60449
2021-05-07 12:03:06.997220,97.4176
2021-05-07 12:03:07.012850,92.14142
2021-05-07 12:03:07.028480,80.16357
2021-05-07 12:03:07.044100,64.39294
2021-05-07 12:03:07.059730,49.07074
2021-05-07 12:03:07.075350,37.89935
2021-05-07 12:03:07.090980,32.5
2021-05-07 12:03:07.106600,31.98016
2021-05-07 12:03:07.122230,33.711
2021-05-07 12:03:07.137860,34.59418
2021-05-07 12:03:07.153480,32.41443
2021-05-07 12:03:07.169110,26.49268
2021-05-07 12:03:07.184730,17.67175
2021-05-07 12:03:07.200360,7.661499
2021-05-07 12:03:07.215980,-1.85083
2021-05-07 12:03:07.231610,-9.881348
2021-05-07 12:03:07.247240,-16.43134
2021-05-07 12:03:07.262860,-22.23718
2021-05-07 12:03:07.278490,-28.25232
2021-05-07 12:03:07.294110,-34.87677
2021-05-07 12:03:07.309740,-41.64935
2021-05-07 12:03:07.325360,-47.56207
2021-05-07 12:03:07.340990,-51.7428
2021-05-07 12:03:07.356620,-54.23431
2021-05-07 12:03:07.372240,-56.16614
2021-05-07 12:03:07.387870,-59.33948
2021-05-07 12:03:07.403490,-65.40723
2021-05-07 12:03:07.419120,-75.04156
2021-05-07 12:03:07.434740,-87.60034
2021-05-07 12:03:07.450370,-101.3489
2021-05-07 12:03:07.466000,-114.1223
2021-05-07 12:03:07.481620,-123.9694
2021-05-07 12:03:07.497250,-129.5921
2021-05-07 12:03:07.512870,-130.4678
2021-05-07 12:03:07.528500,-126.8432
2021-05-07 12:03:07.544120,-119.6216
2021-05-07 12:03:07.559750,-110.1504
2021-05-07 12:03:07.575380,-99.8714
2021-05-07 12:03:07.591000,-90.07428
2021-05-07 12:03:07.606630,-81.63239
2021-05-07 12:03:07.622250,-74.79016
2021-05-07 12:03:07.637880,-69.32544
2021-05-07 12:03:07.653500,-64.80969
2021-05-07 12:03:07.669130,-60.82886
2021-05-07 12:03:07.684760,-57.14819
2021-05-07 12:03:07.700380,-53.56549
2021-05-07 12:03:07.716010,-49.75427
2021-05-07 12:03:07.731630,-45.1875
2021-05-07 12:03:07.747260,-39.25446
2021-05-07 12:03:07.762880,-31.61804
2021-05-07 12:03:07.778510,-22.6048
2021-05-07 12:03:07.794140,-13.39819
2021-05-07 12:03:07.809760,-5.694031
2021-05-07 12:03:07.825390,-1.111145
2021-05-07 12:03:07.856640,-2.899963
2021-05-07 12:03:07.872260,-7.282227
2021-05-07 12:03:07.887890,-11.70148
2021-05-07 12:03:07.903520,-14.84076
2021-05-07 12:03:07.919140,-16.34753
2021-05-07 12:03:07.934770,-16.82825
2021-05-07 12:03:07.950390,-17.37445
2021-05-07 12:03:07.966020,-18.9386
2021-05-07 12:03:07.981650,-21.76135
2021-05-07 12:03:07.997270,-25.35907
2021-05-07 12:03:08.012900,-28.57471
2021-05-07 12:03:08.028520,-30.13019
2021-05-07 12:03:08.044150,-29.01123
2021-05-07 12:03:08.059770,-24.83081
2021-05-07 12:03:08.075400,-17.91321
2021-05-07 12:03:08.091030,-9.178589
2021-05-07 12:03:08.106650,0.1414795
2021-05-07 12:03:08.122280,9.038025
2021-05-07 12:03:08.137900,16.87775
2021-05-07 12:03:08.153530,23.58282
2021-05-07 12:03:08.169150,29.37103
2021-05-07 12:03:08.184780,34.40747
2021-05-07 12:03:08.200410,38.55359
2021-05-07 12:03:08.216030,41.44232
2021-05-07 12:03:08.231660,42.67133
2021-05-07 12:03:08.247280,42.15692
2021-05-07 12:03:08.262910,40.25806
2021-05-07 12:03:08.278530,37.67725
2021-05-07 12:03:08.294160,35.1842
2021-05-07 12:03:08.309790,33.27612
2021-05-07 12:03:08.325410,31.99365
2021-05-07 12:03:08.341040,30.97455
2021-05-07 12:03:08.356660,29.65924
2021-05-07 12:03:08.372290,27.57886
2021-05-07 12:03:08.387910,24.59576
2021-05-07 12:03:08.403540,20.93164
2021-05-07 12:03:08.419170,17.05823
2021-05-07 12:03:08.434790,13.50262
2021-05-07 12:03:08.450420,10.62994
2021-05-07 12:03:08.466040,8.439636
2021-05-07 12:03:08.481670,6.65387
2021-05-07 12:03:08.497290,4.760925
2021-05-07 12:03:08.512920,2.247803
2021-05-07 12:03:08.528550,-1.217957
2021-05-07 12:03:08.544170,-5.668884
2021-05-07 12:03:08.559800,-10.83698
2021-05-07 12:03:08.575420,-16.09119
2021-05-07 12:03:08.591050,-20.57098
2021-05-07 12:03:08.606670,-23.37054
2021-05-07 12:03:08.622300,-23.66998
2021-05-07 12:03:08.637930,-21.07172
2021-05-07 12:03:08.653550,-15.73035
2021-05-07 12:03:08.669180,-8.376709
2021-05-07 12:03:08.684800,-0.09893799
2021-05-07 12:03:08.700430,7.949097
2021-05-07 12:03:08.716050,14.9386
2021-05-07 12:03:08.731680,20.47101
2021-05-07 12:03:08.747310,24.49536
2021-05-07 12:03:08.762930,27.16766
2021-05-07 12:03:08.778560,28.53918
2021-05-07 12:03:08.794180,28.55328
2021-05-07 12:03:08.809810,27.17145
2021-05-07 12:03:08.825430,24.55121
2021-05-07 12:03:08.841060,21.18689
2021-05-07 12:03:08.856690,17.80109
2021-05-07 12:03:08.872310,15.15143
2021-05-07 12:03:08.887940,13.63135
2021-05-07 12:03:08.903560,13.2121
2021-05-07 12:03:08.919190,13.38837
2021-05-07 12:03:08.934810,13.43365
2021-05-07 12:03:08.950440,12.78442
2021-05-07 12:03:08.966070,11.2384
2021-05-07 12:03:08.981690,9.109924
2021-05-07 12:03:08.997320,7.057312
2021-05-07 12:03:09.012940,5.829468
2021-05-07 12:03:09.028570,5.77655
2021-05-07 12:03:09.044190,6.693604
2021-05-07 12:03:09.059820,7.751343
2021-05-07 12:03:09.075450,7.807007
2021-05-07 12:03:09.091070,5.848328
2021-05-07 12:03:09.106700,1.353882
2021-05-07 12:03:09.122320,-5.554199
2021-05-07 12:03:09.137950,-14.22058
2021-05-07 12:03:09.153570,-23.55457
2021-05-07 12:03:09.169200,-32.33105
2021-05-07 12:03:09.184830,-39.25415
2021-05-07 12:03:09.200450,-43.19366
2021-05-07 12:03:09.216080,-43.3847
2021-05-07 12:03:09.231700,-39.69269
2021-05-07 12:03:09.247330,-32.7124
2021-05-07 12:03:09.262950,-23.67468
2021-05-07 12:03:09.278580,-14.10645
2021-05-07 12:03:09.294210,-5.347351
2021-05-07 12:03:09.309830,1.768677
2021-05-07 12:03:09.325460,7.023315
2021-05-07 12:03:09.341080,10.64764
2021-05-07 12:03:09.356710,13.05188
2021-05-07 12:03:09.372330,14.66272
2021-05-07 12:03:09.387960,15.82739
2021-05-07 12:03:09.403590,16.80762
2021-05-07 12:03:09.419210,17.78528
2021-05-07 12:03:09.434840,18.77301
2021-05-07 12:03:09.450460,19.64661
2021-05-07 12:03:09.466090,20.22101
2021-05-07 12:03:09.481710,20.34833
2021-05-07 12:03:09.497340,20.05353
2021-05-07 12:03:09.512970,19.58765
2021-05-07 12:03:09.528590,19.22784
2021-05-07 12:03:09.544220,19.18396
2021-05-07 12:03:09.559840,19.48444
2021-05-07 12:03:09.575470,20.05438
2021-05-07 12:03:09.591090,20.72339
2021-05-07 12:03:09.606720,21.32379
2021-05-07 12:03:09.622350,21.69073
2021-05-07 12:03:09.637970,21.52643
2021-05-07 12:03:09.653600,20.44672
2021-05-07 12:03:09.669220,17.98065
2021-05-07 12:03:09.684850,13.80084
2021-05-07 12:03:09.700470,7.82843
2021-05-07 12:03:09.716100,0.3808594
2021-05-07 12:03:09.731730,-7.881958
2021-05-07 12:03:09.747350,-16.04156
2021-05-07 12:03:09.762980,-23.03784
2021-05-07 12:03:09.778600,-27.87427
2021-05-07 12:03:09.794230,-29.80994
2021-05-07 12:03:09.809850,-28.55634
2021-05-07 12:03:09.825480,-24.43823
2021-05-07 12:03:09.841110,-18.36127
2021-05-07 12:03:09.856730,-11.56921
2021-05-07 12:03:09.872360,-5.259155
2021-05-07 12:03:09.887980,-0.2682495
2021-05-07 12:03:09.903610,3.037964
2021-05-07 12:03:09.919230,4.652954
2021-05-07 12:03:09.934860,4.635925
2021-05-07 12:03:09.950490,3.091614
2021-05-07 12:03:09.966110,0.1871338
2021-05-07 12:03:09.981740,-3.682251
2021-05-07 12:03:09.997360,-7.807983
2021-05-07 12:03:10.012990,-11.22443
2021-05-07 12:03:10.028610,-13.09973
2021-05-07 12:03:10.044240,-13.04138
2021-05-07 12:03:10.059870,-11.1546
2021-05-07 12:03:10.075490,-7.956909
2021-05-07 12:03:10.091120,-4.006836
2021-05-07 12:03:10.106740,0.2348022
2021-05-07 12:03:10.122370,4.431885
2021-05-07 12:03:10.137990,8.236389
2021-05-07 12:03:10.153620,11.18781
2021-05-07 12:03:10.169250,12.69055
2021-05-07 12:03:10.184870,12.19977
2021-05-07 12:03:10.200500,9.39801
2021-05-07 12:03:10.216120,4.257385
2021-05-07 12:03:10.231750,-2.911438
2021-05-07 12:03:10.247380,-11.62817
2021-05-07 12:03:10.263000,-21.3656
2021-05-07 12:03:10.278630,-31.6228
2021-05-07 12:03:10.294250,-41.92993
2021-05-07 12:03:10.309880,-51.67743
2021-05-07 12:03:10.325500,-59.99786
2021-05-07 12:03:10.341130,-65.71271
2021-05-07 12:03:10.356760,-67.59869
2021-05-07 12:03:10.372380,-64.7384
2021-05-07 12:03:10.388010,-57.14917
2021-05-07 12:03:10.403630,-46.02527
2021-05-07 12:03:10.419260,-33.41315
2021-05-07 12:03:10.434880,-21.44635
2021-05-07 12:03:10.450510,-11.31018
2021-05-07 12:03:10.466140,-2.728638
2021-05-07 12:03:10.481760,5.639832
2021-05-07 12:03:10.497390,15.08234
2021-05-07 12:03:10.513010,25.71649
2021-05-07 12:03:10.528640,36.16193
2021-05-07 12:03:10.544260,44.38501
2021-05-07 12:03:10.559890,49.33124
2021-05-07 12:03:10.575520,51.88464
2021-05-07 12:03:10.591140,54.66608
2021-05-07 12:03:10.606770,60.35278
2021-05-07 12:03:10.622390,69.67004
2021-05-07 12:03:10.638020,80.54382
2021-05-07 12:03:10.653640,88.98981
2021-05-07 12:03:10.669270,91.39514
2021-05-07 12:03:10.684900,86.59857
2021-05-07 12:03:10.700520,76.55164
2021-05-07 12:03:10.716150,64.82635
2021-05-07 12:03:10.731770,54.37683
2021-05-07 12:03:10.747400,45.88202
2021-05-07 12:03:10.763020,37.74603
2021-05-07 12:03:10.778650,27.78107
2021-05-07 12:03:10.794280,15.01605
2021-05-07 12:03:10.809900,0.5029297
2021-05-07 12:03:10.825530,-13.46704
2021-05-07 12:03:10.841150,-24.97937
2021-05-07 12:03:10.856780,-33.86041
2021-05-07 12:03:10.872400,-41.62018
2021-05-07 12:03:10.888030,-50.25836
2021-05-07 12:03:10.903660,-60.82202
2021-05-07 12:03:10.919280,-72.58551
2021-05-07 12:03:10.934910,-83.43927
2021-05-07 12:03:10.950530,-91.03943
2021-05-07 12:03:10.966160,-94.00018
2021-05-07 12:03:10.981780,-92.31299
2021-05-07 12:03:10.997410,-87.08984
2021-05-07 12:03:11.013040,-79.84503
2021-05-07 12:03:11.028660,-71.7981
2021-05-07 12:03:11.044290,-63.63599
2021-05-07 12:03:11.059910,-55.61285
2021-05-07 12:03:11.075540,-47.84503
2021-05-07 12:03:11.091160,-40.58807
2021-05-07 12:03:11.106790,-34.35565
2021-05-07 12:03:11.122420,-29.80951
2021-05-07 12:03:11.138040,-27.43634
2021-05-07 12:03:11.153670,-27.33264
2021-05-07 12:03:11.169290,-29.08142
2021-05-07 12:03:11.184920,-31.89978
2021-05-07 12:03:11.200540,-34.81805
2021-05-07 12:03:11.216170,-36.95825
2021-05-07 12:03:11.231800,-37.77057
2021-05-07 12:03:11.247420,-37.15643
2021-05-07 12:03:11.263050,-35.45392
2021-05-07 12:03:11.278670,-33.30493
2021-05-07 12:03:11.294300,-31.39771
2021-05-07 12:03:11.309920,-30.23047
2021-05-07 12:03:11.325550,-29.96277
2021-05-07 12:03:11.341180,-30.40082
2021-05-07 12:03:11.356800,-31.16473
2021-05-07 12:03:11.372430,-31.94183
2021-05-07 12:03:11.388050,-32.64667
2021-05-07 12:03:11.403680,-33.52148
2021-05-07 12:03:11.419300,-35.03271
2021-05-07 12:03:11.434930,-37.66223
2021-05-07 12:03:11.450560,-41.6676
2021-05-07 12:03:11.466180,-47.00574
2021-05-07 12:03:11.481810,-53.27246
2021-05-07 12:03:11.497430,-59.83813
2021-05-07 12:03:11.513060,-65.88068
2021-05-07 12:03:11.528680,-70.45673
2021-05-07 12:03:11.544310,-72.61041
2021-05-07 12:03:11.559940,-71.55029
2021-05-07 12:03:11.575560,-66.87323
2021-05-07 12:03:11.591190,-58.72418
2021-05-07 12:03:11.606810,-47.83234
2021-05-07 12:03:11.622440,-35.36072
2021-05-07 12:03:11.638060,-22.64099
2021-05-07 12:03:11.653690,-10.75824
2021-05-07 12:03:11.669320,-0.3967896
2021-05-07 12:03:11.684940,8.238586
2021-05-07 12:03:11.700570,15.23096
2021-05-07 12:03:11.716190,20.76114
2021-05-07 12:03:11.731820,24.91544
2021-05-07 12:03:11.747440,27.74084
2021-05-07 12:03:11.763070,29.3645
2021-05-07 12:03:11.778700,30.14151
2021-05-07 12:03:11.794320,30.71695
2021-05-07 12:03:11.809950,31.7753
2021-05-07 12:03:11.825570,33.77371
2021-05-07 12:03:11.841200,36.71985
2021-05-07 12:03:11.856820,40.13574
2021-05-07 12:03:11.872450,43.33447
2021-05-07 12:03:11.888080,45.76874
2021-05-07 12:03:11.903700,47.30588
2021-05-07 12:03:11.919330,48.25375
2021-05-07 12:03:11.934950,49.12631
2021-05-07 12:03:11.950580,50.28226
2021-05-07 12:03:11.966200,51.65747
2021-05-07 12:03:11.981830,52.80679
2021-05-07 12:03:11.997460,53.1041
2021-05-07 12:03:12.013080,52.05963
2021-05-07 12:03:12.028710,49.45944
2021-05-07 12:03:12.044330,45.38104
2021-05-07 12:03:12.059960,40.07654
2021-05-07 12:03:12.075580,33.99725
2021-05-07 12:03:12.091210,27.80225
2021-05-07 12:03:12.106840,22.41962
2021-05-07 12:03:12.122460,19.03851
2021-05-07 12:03:12.138090,18.76123
2021-05-07 12:03:12.153710,22.22931
2021-05-07 12:03:12.169340,29.23593
2021-05-07 12:03:12.184960,38.69885
2021-05-07 12:03:12.200590,48.85904
2021-05-07 12:03:12.216220,58.04672
2021-05-07 12:03:12.231840,65.1214
2021-05-07 12:03:12.247470,69.81314
2021-05-07 12:03:12.263090,72.57877
2021-05-07 12:03:12.278720,74.09131
2021-05-07 12:03:12.294340,74.73062
2021-05-07 12:03:12.309970,74.38132
2021-05-07 12:03:12.325600,72.6286
2021-05-07 12:03:12.341220,69.13251
2021-05-07 12:03:12.356850,64.09088
2021-05-07 12:03:12.372470,58.31033
2021-05-07 12:03:12.388100,52.9447
2021-05-07 12:03:12.403720,48.97882
2021-05-07 12:03:12.419350,46.78458
2021-05-07 12:03:12.434980,45.94806
2021-05-07 12:03:12.450600,45.48737
2021-05-07 12:03:12.466230,44.36871
2021-05-07 12:03:12.481850,41.88156
2021-05-07 12:03:12.497480,37.84177
2021-05-07 12:03:12.513100,32.5585
2021-05-07 12:03:12.528730,26.45348
2021-05-07 12:03:12.544360,19.88155
2021-05-07 12:03:12.559980,12.89948
2021-05-07 12:03:12.575610,5.270111
2021-05-07 12:03:12.591230,-3.303406
2021-05-07 12:03:12.606860,-13.02185
2021-05-07 12:03:12.622480,-23.85593
2021-05-07 12:03:12.638110,-35.42996
2021-05-07 12:03:12.653740,-46.95821
2021-05-07 12:03:12.669360,-57.3967
2021-05-07 12:03:12.684990,-65.34668
2021-05-07 12:03:12.700610,-69.39305
2021-05-07 12:03:12.716240,-68.33765
2021-05-07 12:03:12.731860,-61.55048
2021-05-07 12:03:12.747490,-49.30566
2021-05-07 12:03:12.763120,-32.86963
2021-05-07 12:03:12.778740,-14.21341
2021-05-07 12:03:12.794370,4.392731
2021-05-07 12:03:12.809990,20.86203
2021-05-07 12:03:12.825620,33.84482
2021-05-07 12:03:12.841250,42.72293
2021-05-07 12:03:12.856870,47.53455
2021-05-07 12:03:12.872500,48.67343
2021-05-07 12:03:12.888120,46.62875
2021-05-07 12:03:12.903750,41.93051
2021-05-07 12:03:12.919370,35.41904
2021-05-07 12:03:12.935000,28.32965
2021-05-07 12:03:12.950630,22.18552
2021-05-07 12:03:12.966250,18.42319
2021-05-07 12:03:12.981880,17.68463
2021-05-07 12:03:12.997500,19.43948
2021-05-07 12:03:13.013130,22.19553
2021-05-07 12:03:13.028750,24.12485
2021-05-07 12:03:13.044380,24.04349
2021-05-07 12:03:13.060010,22.14761
2021-05-07 12:03:13.075630,19.83279
2021-05-07 12:03:13.091260,18.88626
2021-05-07 12:03:13.106880,20.31107
2021-05-07 12:03:13.122510,23.40985
2021-05-07 12:03:13.138130,25.99408
2021-05-07 12:03:13.153760,25.49231
2021-05-07 12:03:13.169390,20.1062
2021-05-07 12:03:13.185010,9.599182
2021-05-07 12:03:13.200640,-4.754456
2021-05-07 12:03:13.216260,-21.08273
2021-05-07 12:03:13.231890,-37.81018
2021-05-07 12:03:13.247510,-53.87271
2021-05-07 12:03:13.263140,-68.45419
2021-05-07 12:03:13.278770,-80.23199
2021-05-07 12:03:13.294390,-87.2468
2021-05-07 12:03:13.310020,-87.64813
2021-05-07 12:03:13.325640,-80.83838
2021-05-07 12:03:13.341270,-68.28705
2021-05-07 12:03:13.356890,-53.29373
2021-05-07 12:03:13.372520,-39.57297
2021-05-07 12:03:13.388150,-29.41708
2021-05-07 12:03:13.403770,-22.70493
2021-05-07 12:03:13.419400,-17.16748
2021-05-07 12:03:13.435020,-9.913879
2021-05-07 12:03:13.450650,0.7621765
2021-05-07 12:03:13.466270,14.44717
2021-05-07 12:03:13.481900,28.98358
2021-05-07 12:03:13.497530,41.68579
2021-05-07 12:03:13.513150,50.80734
2021-05-07 12:03:13.528780,56.14993
2021-05-07 12:03:13.544400,58.68878
2021-05-07 12:03:13.560030,59.61078
2021-05-07 12:03:13.575650,59.38666
2021-05-07 12:03:13.591280,57.54889
2021-05-07 12:03:13.606910,53.23785
2021-05-07 12:03:13.622530,46.03262
2021-05-07 12:03:13.638160,36.56332
2021-05-07 12:03:13.653780,26.64026
2021-05-07 12:03:13.669410,18.60001
2021-05-07 12:03:13.685030,14.15213
2021-05-07 12:03:13.700660,13.47028
2021-05-07 12:03:13.716290,14.93915
2021-05-07 12:03:13.731910,15.80212
2021-05-07 12:03:13.747540,13.51892
2021-05-07 12:03:13.763160,6.904663
2021-05-07 12:03:13.778790,-3.44046
2021-05-07 12:03:13.794410,-15.63342
2021-05-07 12:03:13.810040,-27.48849
2021-05-07 12:03:13.825670,-37.41785
2021-05-07 12:03:13.841290,-44.7305
2021-05-07 12:03:13.856920,-49.22815
2021-05-07 12:03:13.872540,-50.76263
2021-05-07 12:03:13.888170,-49.0549
2021-05-07 12:03:13.903790,-43.96008
2021-05-07 12:03:13.919420,-35.94452
2021-05-07 12:03:13.935050,-26.26279
2021-05-07 12:03:13.950670,-16.48489
2021-05-07 12:03:13.966300,-7.84256
2021-05-07 12:03:13.981920,-0.6010742
2021-05-07 12:03:13.997550,5.914246
2021-05-07 12:03:14.013170,12.71017
2021-05-07 12:03:14.028800,20.23892
2021-05-07 12:03:14.044430,27.93979
2021-05-07 12:03:14.060050,34.35403
2021-05-07 12:03:14.075680,37.77179
2021-05-07 12:03:14.091300,37.01108
2021-05-07 12:03:14.106930,31.83575
2021-05-07 12:03:14.122550,23.06335
2021-05-07 12:03:14.138180,12.21164
2021-05-07 12:03:14.153810,0.990509
2021-05-07 12:03:14.169430,-9.246277
2021-05-07 12:03:14.185060,-17.77475
2021-05-07 12:03:14.200680,-24.505
2021-05-07 12:03:14.216310,-29.74777
2021-05-07 12:03:14.231930,-33.87335
2021-05-07 12:03:14.247560,-37.16071
2021-05-07 12:03:14.263190,-39.68793
2021-05-07 12:03:14.278810,-41.52942
2021-05-07 12:03:14.294440,-42.81537
2021-05-07 12:03:14.310060,-43.70093
2021-05-07 12:03:14.325690,-44.0658
2021-05-07 12:03:14.341310,-43.38855
2021-05-07 12:03:14.356940,-40.97174
2021-05-07 12:03:14.372570,-36.40155
2021-05-07 12:03:14.388190,-30.08057
2021-05-07 12:03:14.403820,-23.1387
2021-05-07 12:03:14.419440,-16.93088
2021-05-07 12:03:14.435070,-12.22
2021-05-07 12:03:14.450690,-8.715271
2021-05-07 12:03:14.466320,-5.327454
2021-05-07 12:03:14.481950,-1.035797
2021-05-07 12:03:14.497570,4.093567
2021-05-07 12:03:14.513200,8.78833
2021-05-07 12:03:14.528820,11.25803
2021-05-07 12:03:14.544450,10.42285
2021-05-07 12:03:14.560070,6.758667
2021-05-07 12:03:14.575700,2.111237
2021-05-07 12:03:14.591330,-1.364838
2021-05-07 12:03:14.606950,-2.435974
2021-05-07 12:03:14.622580,-1.326996
2021-05-07 12:03:14.638200,0.6142578
2021-05-07 12:03:14.653830,2.134369
2021-05-07 12:03:14.669450,2.887115
2021-05-07 12:03:14.685080,3.423187
2021-05-07 12:03:14.700710,4.435516
2021-05-07 12:03:14.716330,6.034698
2021-05-07 12:03:14.731960,7.733124
2021-05-07 12:03:14.747580,9.122864
2021-05-07 12:03:14.763210,10.7084
2021-05-07 12:03:14.778830,13.80576
2021-05-07 12:03:14.794460,19.74924
2021-05-07 12:03:14.810090,28.52423
2021-05-07 12:03:14.825710,38.17007
2021-05-07 12:03:14.841340,45.57141
2021-05-07 12:03:14.856960,48.19638
2021-05-07 12:03:14.872590,45.57828
2021-05-07 12:03:14.888210,39.48386
2021-05-07 12:03:14.903840,32.65723
2021-05-07 12:03:14.919470,26.86096
2021-05-07 12:03:14.935090,21.89981
2021-05-07 12:03:14.950720,16.09451
2021-05-07 12:03:14.966340,7.948486
2021-05-07 12:03:14.981970,-2.298187
2021-05-07 12:03:14.997590,-12.34534
2021-05-07 12:03:15.013220,-19.15909
2021-05-07 12:03:15.028850,-20.80185
2021-05-07 12:03:15.044470,-17.61343
2021-05-07 12:03:15.060100,-11.8952
2021-05-07 12:03:15.075720,-6.519592
2021-05-07 12:03:15.091350,-3.247833
2021-05-07 12:03:15.106980,-2.075928
2021-05-07 12:03:15.122600,-1.519135
2021-05-07 12:03:15.138230,0.1297913
2021-05-07 12:03:15.153850,3.547333
2021-05-07 12:03:15.169480,7.999847
2021-05-07 12:03:15.185100,11.78189
2021-05-07 12:03:15.200730,13.30164
2021-05-07 12:03:15.216360,11.99893
2021-05-07 12:03:15.231980,8.621307
2021-05-07 12:03:15.247610,4.607635
2021-05-07 12:03:15.263230,1.354248
2021-05-07 12:03:15.278860,-0.5646667
2021-05-07 12:03:15.294480,-1.512146
2021-05-07 12:03:15.310110,-2.359619
2021-05-07 12:03:15.325740,-3.881775
2021-05-07 12:03:15.341360,-6.339508
2021-05-07 12:03:15.356990,-9.334229
2021-05-07 12:03:15.372610,-12.12653
2021-05-07 12:03:15.388240,-14.14874
2021-05-07 12:03:15.403860,-15.37076
2021-05-07 12:03:15.419490,-16.36438
2021-05-07 12:03:15.435120,-18.08417
2021-05-07 12:03:15.450740,-21.34589
2021-05-07 12:03:15.466370,-26.41623
2021-05-07 12:03:15.481990,-32.97452
2021-05-07 12:03:15.497620,-40.25455
2021-05-07 12:03:15.513240,-47.44037
2021-05-07 12:03:15.528870,-53.95358
2021-05-07 12:03:15.544500,-59.41125
2021-05-07 12:03:15.560120,-63.31635
2021-05-07 12:03:15.575750,-65.065
2021-05-07 12:03:15.591370,-63.89606
2021-05-07 12:03:15.607000,-59.4325
2021-05-07 12:03:15.622620,-52.07291
2021-05-07 12:03:15.638250,-42.96527
2021-05-07 12:03:15.653880,-33.40616
2021-05-07 12:03:15.669500,-23.99728
2021-05-07 12:03:15.685130,-14.03333
2021-05-07 12:03:15.700750,-1.817566
2021-05-07 12:03:15.716380,14.1282
2021-05-07 12:03:15.732000,33.82611
2021-05-07 12:03:15.747630,55.16672
2021-05-07 12:03:15.763260,74.60159
2021-05-07 12:03:15.778880,88.73239
2021-05-07 12:03:15.794510,96.12085
2021-05-07 12:03:15.810130,97.82666
2021-05-07 12:03:15.825760,96.72745
2021-05-07 12:03:15.841380,95.54715
2021-05-07 12:03:15.857010,95.27347
2021-05-07 12:03:15.872640,94.65814
2021-05-07 12:03:15.888260,91.27176
2021-05-07 12:03:15.903890,83.3082
2021-05-07 12:03:15.919510,70.92667
2021-05-07 12:03:15.935140,56.44696
2021-05-07 12:03:15.950760,43.04422
2021-05-07 12:03:15.966390,33.17422
2021-05-07 12:03:15.982020,27.26801
2021-05-07 12:03:15.997640,23.82858
2021-05-07 12:03:16.013270,20.39923
2021-05-07 12:03:16.028890,14.89197
2021-05-07 12:03:16.044520,6.522339
2021-05-07 12:03:16.060140,-4.163086
2021-05-07 12:03:16.075770,-15.85815
2021-05-07 12:03:16.091400,-27.30527
2021-05-07 12:03:16.107020,-37.75125
2021-05-07 12:03:16.122650,-47.0567
2021-05-07 12:03:16.138270,-55.2359
2021-05-07 12:03:16.153900,-62.11066
2021-05-07 12:03:16.169520,-66.95581
2021-05-07 12:03:16.185150,-68.66296
2021-05-07 12:03:16.200780,-66.18597
2021-05-07 12:03:16.216400,-59.08948
2021-05-07 12:03:16.232030,-47.90967
2021-05-07 12:03:16.247650,-34.19653
2021-05-07 12:03:16.263280,-20.03604
2021-05-07 12:03:16.278900,-7.390045
2021-05-07 12:03:16.294530,2.490753
2021-05-07 12:03:16.310160,9.298065
2021-05-07 12:03:16.325780,13.6077
2021-05-07 12:03:16.341410,16.27612
2021-05-07 12:03:16.357030,18.06635
2021-05-07 12:03:16.372660,19.30432
2021-05-07 12:03:16.388280,19.88287
2021-05-07 12:03:16.403910,19.47705
2021-05-07 12:03:16.419540,17.89838
2021-05-07 12:03:16.435160,15.25244
2021-05-07 12:03:16.450790,11.92523
2021-05-07 12:03:16.466410,8.496002
2021-05-07 12:03:16.482040,5.414429
2021-05-07 12:03:16.497660,2.927826
2021-05-07 12:03:16.513290,1.000916
2021-05-07 12:03:16.528920,-0.6305542
2021-05-07 12:03:16.544540,-2.291199
2021-05-07 12:03:16.560170,-4.222046
2021-05-07 12:03:16.575790,-6.471405
2021-05-07 12:03:16.591420,-8.890015
2021-05-07 12:03:16.607040,-11.17157
2021-05-07 12:03:16.622670,-13.08856
2021-05-07 12:03:16.638300,-14.54099
2021-05-07 12:03:16.653920,-15.61328
2021-05-07 12:03:16.669550,-16.50775
2021-05-07 12:03:16.685170,-17.43362
2021-05-07 12:03:16.700800,-18.36328
2021-05-07 12:03:16.716420,-18.9386
2021-05-07 12:03:16.732050,-18.3981
2021-05-07 12:03:16.747680,-15.8241
2021-05-07 12:03:16.763300,-10.47595
2021-05-07 12:03:16.778930,-2.023438
2021-05-07 12:03:16.794550,9.300659
2021-05-07 12:03:16.810180,22.72372
2021-05-07 12:03:16.825800,37.15881
2021-05-07 12:03:16.841430,51.40628
2021-05-07 12:03:16.857060,64.32239
2021-05-07 12:03:16.872680,74.96558
2021-05-07 12:03:16.888310,82.68375
2021-05-07 12:03:16.903930,87.14389
2021-05-07 12:03:16.919560,88.51059
2021-05-07 12:03:16.935180,87.34933
2021-05-07 12:03:16.950810,84.45197
2021-05-07 12:03:16.966440,80.61578
2021-05-07 12:03:16.982060,76.31006
2021-05-07 12:03:16.997690,71.57553
2021-05-07 12:03:17.013310,66.13593
2021-05-07 12:03:17.028940,59.78534
2021-05-07 12:03:17.044560,52.65125
2021-05-07 12:03:17.060190,45.42261
2021-05-07 12:03:17.075820,39.06818
2021-05-07 12:03:17.091440,34.52328
2021-05-07 12:03:17.107070,32.297
2021-05-07 12:03:17.122690,32.22894
2021-05-07 12:03:17.138320,33.53247
2021-05-07 12:03:17.153940,35.09164
2021-05-07 12:03:17.169570,35.85632
2021-05-07 12:03:17.185200,35.12149
2021-05-07 12:03:17.200820,32.6972
2021-05-07 12:03:17.216450,28.77713
2021-05-07 12:03:17.232070,23.87653
2021-05-07 12:03:17.247700,18.62656
2021-05-07 12:03:17.263320,13.51392
2021-05-07 12:03:17.278950,8.663422
2021-05-07 12:03:17.294580,3.713135
2021-05-07 12:03:17.310200,-2.263184
2021-05-07 12:03:17.325830,-10.47656
2021-05-07 12:03:17.341450,-21.95734
2021-05-07 12:03:17.357080,-36.94925
2021-05-07 12:03:17.372700,-54.47327
2021-05-07 12:03:17.388330,-72.33789
2021-05-07 12:03:17.403960,-87.7977
2021-05-07 12:03:17.419580,-98.37738
2021-05-07 12:03:17.435210,-102.6121
2021-05-07 12:03:17.450830,-100.4863
2021-05-07 12:03:17.466460,-93.14191
2021-05-07 12:03:17.482080,-82.31976
2021-05-07 12:03:17.497710,-69.73315
2021-05-07 12:03:17.513340,-56.77667
2021-05-07 12:03:17.528960,-44.37952
2021-05-07 12:03:17.544590,-33.31403
2021-05-07 12:03:17.560210,-24.21362
2021-05-07 12:03:17.575840,-17.57117
2021-05-07 12:03:17.591470,-13.59174
2021-05-07 12:03:17.607090,-12.05396
2021-05-07 12:03:17.622720,-12.28235
2021-05-07 12:03:17.638340,-13.36298
2021-05-07 12:03:17.653970,-14.38715
2021-05-07 12:03:17.669590,-14.6817
2021-05-07 12:03:17.685220,-14.01276
2021-05-07 12:03:17.700850,-12.54919
2021-05-07 12:03:17.716470,-10.76825
2021-05-07 12:03:17.732100,-9.270447
2021-05-07 12:03:17.747720,-8.555542
2021-05-07 12:03:17.763350,-8.804932
2021-05-07 12:03:17.778970,-9.926758
2021-05-07 12:03:17.794600,-11.57013
2021-05-07 12:03:17.810230,-13.34894
2021-05-07 12:03:17.825850,-15.06958
2021-05-07 12:03:17.841480,-16.74176
2021-05-07 12:03:17.857100,-18.55139
2021-05-07 12:03:17.872730,-20.72607
2021-05-07 12:03:17.888350,-23.34998
2021-05-07 12:03:17.903980,-26.25012
2021-05-07 12:03:17.919610,-29.18433
2021-05-07 12:03:17.935230,-31.83392
2021-05-07 12:03:17.950860,-33.95093
2021-05-07 12:03:17.966480,-35.41113
2021-05-07 12:03:17.982110,-36.11078
2021-05-07 12:03:17.997730,-35.83142
2021-05-07 12:03:18.013360,-34.30048
2021-05-07 12:03:18.028990,-31.24353
2021-05-07 12:03:18.044610,-26.56805
2021-05-07 12:03:18.060240,-20.5603
2021-05-07 12:03:18.075860,-13.82849
2021-05-07 12:03:18.091490,-7.108215
2021-05-07 12:03:18.107110,-1.052551
2021-05-07 12:03:18.122740,4.004333
2021-05-07 12:03:18.138370,8.055115
2021-05-07 12:03:18.153990,11.22583
2021-05-07 12:03:18.169620,13.61584
2021-05-07 12:03:18.185240,15.15991
2021-05-07 12:03:18.200870,15.70966
2021-05-07 12:03:18.216490,15.18256
2021-05-07 12:03:18.232120,13.80505
2021-05-07 12:03:18.247750,12.08148
2021-05-07 12:03:18.263370,10.70544
2021-05-07 12:03:18.279000,10.21454
2021-05-07 12:03:18.294620,10.71509
2021-05-07 12:03:18.310250,11.77368
2021-05-07 12:03:18.325870,12.61725
2021-05-07 12:03:18.341500,12.47302
2021-05-07 12:03:18.357130,10.92383
2021-05-07 12:03:18.372750,8.145874
2021-05-07 12:03:18.388380,4.694275
2021-05-07 12:03:18.404000,1.223083
2021-05-07 12:03:18.419630,-1.922302
2021-05-07 12:03:18.435250,-4.873962
2021-05-07 12:03:18.450880,-8.144531
2021-05-07 12:03:18.466510,-12.28271
2021-05-07 12:03:18.482130,-17.73242
2021-05-07 12:03:18.497760,-24.62933
2021-05-07 12:03:18.513380,-32.87854
2021-05-07 12:03:18.529010,-42.2583
2021-05-07 12:03:18.544630,-52.30591
2021-05-07 12:03:18.560260,-62.27563
2021-05-07 12:03:18.575890,-70.95343
2021-05-07 12:03:18.591510,-76.80804
2021-05-07 12:03:18.607140,-78.3446
2021-05-07 12:03:18.622760,-74.64471
2021-05-07 12:03:18.638390,-65.75824
2021-05-07 12:03:18.654010,-52.74933
2021-05-07 12:03:18.669640,-37.38837
2021-05-07 12:03:18.685270,-21.62396
2021-05-07 12:03:18.700890,-7.036621
2021-05-07 12:03:18.716520,5.373779
2021-05-07 12:03:18.732140,15.21222
2021-05-07 12:03:18.747770,22.49597
2021-05-07 12:03:18.763390,27.40717
2021-05-07 12:03:18.779020,30.16357
2021-05-07 12:03:18.794650,31.07288
2021-05-07 12:03:18.810270,30.51544
2021-05-07 12:03:18.825900,28.91034
2021-05-07 12:03:18.841520,26.71265
2021-05-07 12:03:18.857150,24.23578
2021-05-07 12:03:18.872770,21.63184
2021-05-07 12:03:18.888400,18.8775
2021-05-07 12:03:18.904030,15.79755
2021-05-07 12:03:18.919650,12.24237
2021-05-07 12:03:18.935280,8.137451
2021-05-07 12:03:18.950900,3.613892
2021-05-07 12:03:18.966530,-1.009033
2021-05-07 12:03:18.982150,-5.267273
2021-05-07 12:03:18.997780,-8.735901
2021-05-07 12:03:19.013410,-11.13824
2021-05-07 12:03:19.029030,-12.53619
2021-05-07 12:03:19.044660,-13.2876
2021-05-07 12:03:19.060280,-13.94647
2021-05-07 12:03:19.075910,-15.06
2021-05-07 12:03:19.091530,-17.09674
2021-05-07 12:03:19.107160,-20.3291
2021-05-07 12:03:19.122790,-24.79138
2021-05-07 12:03:19.138410,-30.31952
2021-05-07 12:03:19.154040,-36.3689
2021-05-07 12:03:19.169660,-42.05115
2021-05-07 12:03:19.185290,-46.28198
2021-05-07 12:03:19.200910,-48.10461
2021-05-07 12:03:19.216540,-46.94678
2021-05-07 12:03:19.232170,-42.85217
2021-05-07 12:03:19.247790,-36.34955
2021-05-07 12:03:19.263420,-28.28558
2021-05-07 12:03:19.279040,-19.68829
2021-05-07 12:03:19.294670,-11.61499
2021-05-07 12:03:19.310290,-4.954224
2021-05-07 12:03:19.325920,-0.2897949
2021-05-07 12:03:19.341550,2.257141
2021-05-07 12:03:19.357170,3.077759
2021-05-07 12:03:19.372800,2.795837
2021-05-07 12:03:19.388420,1.91864
2021-05-07 12:03:19.404050,0.3828125
2021-05-07 12:03:19.419670,-2.466675
2021-05-07 12:03:19.435300,-7.632507
2021-05-07 12:03:19.450930,-15.78162
2021-05-07 12:03:19.466550,-26.78314
2021-05-07 12:03:19.482180,-39.66168
2021-05-07 12:03:19.497800,-53.02307
2021-05-07 12:03:19.513430,-65.68079
2021-05-07 12:03:19.529050,-76.92316
2021-05-07 12:03:19.544680,-86.43228
2021-05-07 12:03:19.560310,-93.91098
2021-05-07 12:03:19.575930,-98.81055
2021-05-07 12:03:19.591560,-100.6057
2021-05-07 12:03:19.607180,-99.33005
2021-05-07 12:03:19.622810,-95.85773
2021-05-07 12:03:19.638430,-91.74591
2021-05-07 12:03:19.654060,-88.40649
2021-05-07 12:03:19.669690,-86.27472
2021-05-07 12:03:19.685310,-84.56033
2021-05-07 12:03:19.700940,-82.00543
2021-05-07 12:03:19.716560,-77.97516
2021-05-07 12:03:19.732190,-73.19138
2021-05-07 12:03:19.747810,-69.20975
2021-05-07 12:03:19.763440,-66.86353
2021-05-07 12:03:19.779070,-64.89017
2021-05-07 12:03:19.794690,-60.01065
2021-05-07 12:03:19.810320,-48.61847
2021-05-07 12:03:19.825940,-28.99921
2021-05-07 12:03:19.841570,-2.643097
2021-05-07 12:03:19.857190,26.4213
2021-05-07 12:03:19.872820,53.74246
2021-05-07 12:03:19.888450,76.42215
2021-05-07 12:03:19.904070,93.80573
2021-05-07 12:03:19.919700,106.4901
2021-05-07 12:03:19.950950,117.9746
2021-05-07 12:03:19.966580,114.7971
2021-05-07 12:03:19.982200,104.8858
2021-05-07 12:03:19.997830,89.5755
2021-05-07 12:03:20.013450,71.62973
2021-05-07 12:03:20.029080,53.96593
2021-05-07 12:03:20.044700,38.64836
2021-05-07 12:03:20.060330,26.60158
2021-05-07 12:03:20.075960,18.16573
2021-05-07 12:03:20.091580,13.68452
2021-05-07 12:03:20.107210,13.39224
2021-05-07 12:03:20.122830,16.78331
2021-05-07 12:03:20.138460,22.10841
2021-05-07 12:03:20.154080,26.80865
2021-05-07 12:03:20.169710,28.73761
2021-05-07 12:03:20.185340,27.27783
2021-05-07 12:03:20.200960,23.62532
2021-05-07 12:03:20.216590,19.91182
2021-05-07 12:03:20.232210,17.76927
2021-05-07 12:03:20.247840,17.27634
2021-05-07 12:03:20.263460,17.12232
2021-05-07 12:03:20.279090,15.60094
2021-05-07 12:03:20.294720,11.94199
2021-05-07 12:03:20.310340,6.915703
2021-05-07 12:03:20.325970,2.540291
2021-05-07 12:03:20.341590,0.9915466
2021-05-07 12:03:20.357220,3.480957
2021-05-07 12:03:20.372840,9.764572
2021-05-07 12:03:20.388470,18.41484
2021-05-07 12:03:20.404100,27.60192
2021-05-07 12:03:20.419720,35.94207
2021-05-07 12:03:20.435350,42.89429
2021-05-07 12:03:20.450970,48.62095
2021-05-07 12:03:20.466600,53.56755
2021-05-07 12:03:20.482220,57.89402
2021-05-07 12:03:20.497850,61.26207
2021-05-07 12:03:20.513480,62.99099
2021-05-07 12:03:20.529100,62.43537
2021-05-07 12:03:20.544730,59.39008
2021-05-07 12:03:20.560350,54.3327
2021-05-07 12:03:20.575980,48.25275
2021-05-07 12:03:20.591600,42.29353
2021-05-07 12:03:20.607230,37.31673
2021-05-07 12:03:20.622860,33.60109
2021-05-07 12:03:20.638480,30.88862
2021-05-07 12:03:20.654110,28.54753
2021-05-07 12:03:20.669730,25.92187
2021-05-07 12:03:20.685360,22.5046
2021-05-07 12:03:20.700980,18.10176
2021-05-07 12:03:20.716610,12.75835
2021-05-07 12:03:20.732240,6.740498
2021-05-07 12:03:20.747860,0.3897018
2021-05-07 12:03:20.763490,-5.931831
2021-05-07 12:03:20.779110,-11.9101
2021-05-07 12:03:20.794740,-17.30009
2021-05-07 12:03:20.810360,-21.9589
2021-05-07 12:03:20.825990,-25.85816
2021-05-07 12:03:20.841620,-29.03605
2021-05-07 12:03:20.857240,-31.63859
2021-05-07 12:03:20.872870,-33.87108
2021-05-07 12:03:20.888490,-35.93235
2021-05-07 12:03:20.904120,-37.86847
2021-05-07 12:03:20.919740,-39.40229
2021-05-07 12:03:20.935370,-39.8853
2021-05-07 12:03:20.951000,-38.47411
2021-05-07 12:03:20.966620,-34.50584
2021-05-07 12:03:20.982250,-27.79846
2021-05-07 12:03:20.997870,-18.86495
2021-05-07 12:03:21.013500,-8.732361
2021-05-07 12:03:21.029120,1.424286
2021-05-07 12:03:21.044750,10.68472
2021-05-07 12:03:21.060380,18.53572
2021-05-07 12:03:21.076000,24.82364
2021-05-07 12:03:21.091630,29.49163
2021-05-07 12:03:21.107250,32.42245
2021-05-07 12:03:21.122880,33.48043
2021-05-07 12:03:21.138500,32.72034
2021-05-07 12:03:21.154130,30.58633
2021-05-07 12:03:21.169760,27.84711
2021-05-07 12:03:21.185380,25.37242
2021-05-07 12:03:21.201010,23.713
2021-05-07 12:03:21.216630,22.87665
2021-05-07 12:03:21.232260,22.34843
2021-05-07 12:03:21.247880,21.3707
2021-05-07 12:03:21.263510,19.33372
2021-05-07 12:03:21.279140,16.05487
2021-05-07 12:03:21.294760,11.87094
2021-05-07 12:03:21.310390,7.438293
2021-05-07 12:03:21.326010,3.462921
2021-05-07 12:03:21.341640,0.4133911
2021-05-07 12:03:21.357260,-1.656555
2021-05-07 12:03:21.372890,-3.051331
2021-05-07 12:03:21.388520,-4.338974
2021-05-07 12:03:21.404140,-6.135223
2021-05-07 12:03:21.419770,-8.930405
2021-05-07 12:03:21.435390,-12.87531
2021-05-07 12:03:21.451020,-17.64426
2021-05-07 12:03:21.466640,-22.50037
2021-05-07 12:03:21.482270,-26.36397
2021-05-07 12:03:21.497900,-28.18723
2021-05-07 12:03:21.513520,-27.17223
2021-05-07 12:03:21.529150,-23.12024
2021-05-07 12:03:21.544770,-16.3956
2021-05-07 12:03:21.560400,-7.883896
2021-05-07 12:03:21.576020,1.358643
2021-05-07 12:03:21.591650,10.36778
2021-05-07 12:03:21.607280,18.46741
2021-05-07 12:03:21.622900,25.30884
2021-05-07 12:03:21.638530,30.6869
2021-05-07 12:03:21.654150,34.47789
2021-05-07 12:03:21.669780,36.49403
2021-05-07 12:03:21.685400,36.57968
2021-05-07 12:03:21.701030,34.78047
2021-05-07 12:03:21.716660,31.4539
2021-05-07 12:03:21.732280,27.31714
2021-05-07 12:03:21.747910,23.32809
2021-05-07 12:03:21.763530,20.40793
2021-05-07 12:03:21.779160,19.09082
2021-05-07 12:03:21.794780,19.34436
2021-05-07 12:03:21.810410,20.58676
2021-05-07 12:03:21.826040,21.92545
2021-05-07 12:03:21.841660,22.54395
2021-05-07 12:03:21.857290,21.98193
2021-05-07 12:03:21.872910,20.18137
2021-05-07 12:03:21.888540,17.43906
2021-05-07 12:03:21.904160,14.1976
2021-05-07 12:03:21.919790,10.78922
2021-05-07 12:03:21.935420,7.381958
2021-05-07 12:03:21.951040,3.944092
2021-05-07 12:03:21.966670,0.2716675
2021-05-07 12:03:21.982290,-3.873444
2021-05-07 12:03:21.997920,-8.619476
2021-05-07 12:03:22.013540,-13.84705
2021-05-07 12:03:22.029170,-18.98279
2021-05-07 12:03:22.044800,-23.02145
2021-05-07 12:03:22.060420,-24.76089
2021-05-07 12:03:22.076050,-23.23169
2021-05-07 12:03:22.091670,-18.1348
2021-05-07 12:03:22.107300,-10.09348
2021-05-07 12:03:22.122920,-0.3688965
2021-05-07 12:03:22.138550,9.606201
2021-05-07 12:03:22.154180,18.79758
2021-05-07 12:03:22.169800,26.90936
2021-05-07 12:03:22.185430,34.16943
2021-05-07 12:03:22.216680,47.11905
2021-05-07 12:03:22.232310,52.48398
2021-05-07 12:03:22.247930,56.53232
2021-05-07 12:03:22.263560,59.12344
2021-05-07 12:03:22.279180,60.69318
2021-05-07 12:03:22.294810,62.06113
2021-05-07 12:03:22.310430,64.03748
2021-05-07 12:03:22.326060,66.95428
2021-05-07 12:03:22.341690,70.45831
2021-05-07 12:03:22.357310,73.75922
2021-05-07 12:03:22.372940,76.04959
2021-05-07 12:03:22.388560,76.86203
2021-05-07 12:03:22.404190,76.1871
2021-05-07 12:03:22.419810,74.39185
2021-05-07 12:03:22.435440,71.89438
2021-05-07 12:03:22.451070,68.96899
2021-05-07 12:03:22.466690,65.67612
2021-05-07 12:03:22.482320,61.87915
2021-05-07 12:03:22.497940,57.34589
2021-05-07 12:03:22.513570,51.76825
2021-05-07 12:03:22.529190,44.7932
2021-05-07 12:03:22.544820,36.12711
2021-05-07 12:03:22.560450,25.84964
2021-05-07 12:03:22.576070,14.59058
2021-05-07 12:03:22.591700,3.67366
2021-05-07 12:03:22.607320,-5.129715
2021-05-07 12:03:22.622950,-10.07187
2021-05-07 12:03:22.638570,-10.01483
2021-05-07 12:03:22.654200,-4.946609
2021-05-07 12:03:22.669830,3.946594
2021-05-07 12:03:22.685450,14.61345
2021-05-07 12:03:22.701080,24.7386
2021-05-07 12:03:22.716700,32.3196
2021-05-07 12:03:22.732330,36.16309
2021-05-07 12:03:22.747950,36.03775
2021-05-07 12:03:22.763580,32.59059
2021-05-07 12:03:22.779210,27.11598
2021-05-07 12:03:22.794830,21.09692
2021-05-07 12:03:22.810460,15.77998
2021-05-07 12:03:22.826080,11.89243
2021-05-07 12:03:22.841710,9.466995
2021-05-07 12:03:22.857330,7.815323
2021-05-07 12:03:22.872960,5.946289
2021-05-07 12:03:22.888590,3.032059
2021-05-07 12:03:22.904210,-1.137054
2021-05-07 12:03:22.919840,-5.939514
2021-05-07 12:03:22.935460,-10.1433
2021-05-07 12:03:22.951090,-12.54925
2021-05-07 12:03:22.966710,-12.60043
2021-05-07 12:03:22.982340,-10.71353
2021-05-07 12:03:22.997970,-8.133614
2021-05-07 12:03:23.013590,-6.264229
2021-05-07 12:03:23.029220,-6.051155
2021-05-07 12:03:23.044840,-7.711105
2021-05-07 12:03:23.060470,-10.95274
2021-05-07 12:03:23.076090,-15.46138
2021-05-07 12:03:23.091720,-21.28336
2021-05-07 12:03:23.107350,-28.7886
2021-05-07 12:03:23.122970,-38.15673
2021-05-07 12:03:23.138600,-48.85061
2021-05-07 12:03:23.154220,-59.57862
2021-05-07 12:03:23.169850,-68.97438
2021-05-07 12:03:23.185470,-76.2636
2021-05-07 12:03:23.201100,-81.58842
2021-05-07 12:03:23.216730,-85.48586
2021-05-07 12:03:23.232350,-88.011
2021-05-07 12:03:23.247980,-88.17696
2021-05-07 12:03:23.263600,-84.37803
2021-05-07 12:03:23.279230,-75.44524
2021-05-07 12:03:23.294850,-61.76186
2021-05-07 12:03:23.310480,-45.64679
2021-05-07 12:03:23.326110,-30.40207
2021-05-07 12:03:23.341730,-18.84615
2021-05-07 12:03:23.357360,-12.08958
2021-05-07 12:03:23.372980,-9.326128
2021-05-07 12:03:23.388610,-8.723999
2021-05-07 12:03:23.404230,-8.707645
2021-05-07 12:03:23.419860,-8.782667
2021-05-07 12:03:23.435490,-9.325298
2021-05-07 12:03:23.451110,-10.9187
2021-05-07 12:03:23.466740,-13.54825
2021-05-07 12:03:23.482360,-16.37084
2021-05-07 12:03:23.497990,-18.11368
2021-05-07 12:03:23.513610,-17.83272
2021-05-07 12:03:23.529240,-15.48202
2021-05-07 12:03:23.544870,-12.05209
2021-05-07 12:03:23.560490,-9.353962
2021-05-07 12:03:23.576120,-9.20908
2021-05-07 12:03:23.591740,-12.57201
2021-05-07 12:03:23.607370,-18.97211
2021-05-07 12:03:23.622990,-26.6065
2021-05-07 12:03:23.638620,-33.08801
2021-05-07 12:03:23.654250,-36.6827
2021-05-07 12:03:23.669870,-37.36845
2021-05-07 12:03:23.685500,-36.84143
2021-05-07 12:03:23.701120,-37.70476
2021-05-07 12:03:23.716750,-41.67888
2021-05-07 12:03:23.732370,-48.29763
2021-05-07 12:03:23.748000,-54.70016
2021-05-07 12:03:23.763630,-57.10596
2021-05-07 12:03:23.779250,-52.80463
2021-05-07 12:03:23.794880,-41.78175
2021-05-07 12:03:23.810500,-26.81416
2021-05-07 12:03:23.826130,-11.91659
2021-05-07 12:03:23.841750,-0.3330116
2021-05-07 12:03:23.857380,6.921474
2021-05-07 12:03:23.873010,11.02927
2021-05-07 12:03:23.888630,14.24181
2021-05-07 12:03:23.904260,18.18995
2021-05-07 12:03:23.919880,23.22169
2021-05-07 12:03:23.935510,28.5537
2021-05-07 12:03:23.951130,33.21412
2021-05-07 12:03:23.966760,36.91364
2021-05-07 12:03:23.982390,40.08548
2021-05-07 12:03:23.998010,43.25416
2021-05-07 12:03:24.013640,46.19674
2021-05-07 12:03:24.029260,47.70935
2021-05-07 12:03:24.044890,46.03099
2021-05-07 12:03:24.060510,39.79851
2021-05-07 12:03:24.076140,28.69698
2021-05-07 12:03:24.091770,13.84178
2021-05-07 12:03:24.107390,-2.511078
2021-05-07 12:03:24.123020,-17.74701
2021-05-07 12:03:24.138640,-29.84317
2021-05-07 12:03:24.154270,-37.9573
2021-05-07 12:03:24.169890,-42.68357
2021-05-07 12:03:24.185520,-45.64794
2021-05-07 12:03:24.201150,-48.7031
2021-05-07 12:03:24.216770,-53.13287
2021-05-07 12:03:24.232400,-59.16611
2021-05-07 12:03:24.248020,-65.92369
2021-05-07 12:03:24.263650,-71.78063
2021-05-07 12:03:24.279270,-74.73499
2021-05-07 12:03:24.294900,-72.57115
2021-05-07 12:03:24.310530,-63.18906
2021-05-07 12:03:24.326150,-45.21626
2021-05-07 12:03:24.341780,-18.84201
2021-05-07 12:03:24.357400,13.43441
2021-05-07 12:03:24.373030,46.89625
2021-05-07 12:03:24.388650,76.05554
2021-05-07 12:03:24.404280,96.55971
2021-05-07 12:03:24.419910,106.8529
2021-05-07 12:03:24.435530,108.5299
2021-05-07 12:03:24.451160,104.9611
2021-05-07 12:03:24.466780,99.31887
2021-05-07 12:03:24.482410,93.13425
2021-05-07 12:03:24.498030,86.2088
2021-05-07 12:03:24.513660,77.73405
2021-05-07 12:03:24.529290,67.72179
2021-05-07 12:03:24.544910,57.39365
2021-05-07 12:03:24.560540,48.37857
2021-05-07 12:03:24.576160,41.4593
2021-05-07 12:03:24.591790,35.8278
2021-05-07 12:03:24.607410,29.66366
2021-05-07 12:03:24.623040,21.62298
2021-05-07 12:03:24.638670,11.84204
2021-05-07 12:03:24.654290,1.98905
2021-05-07 12:03:24.669920,-5.921053
2021-05-07 12:03:24.685540,-10.95056
2021-05-07 12:03:24.701170,-14.00887
2021-05-07 12:03:24.716790,-17.32547
2021-05-07 12:03:24.732420,-23.1944
2021-05-07 12:03:24.748050,-32.8101
2021-05-07 12:03:24.763670,-45.78368
2021-05-07 12:03:24.779300,-60.59711
2021-05-07 12:03:24.794920,-75.29818
2021-05-07 12:03:24.810550,-88.03006
2021-05-07 12:03:24.826180,-97.16188
2021-05-07 12:03:24.841800,-101.1266
2021-05-07 12:03:24.857430,-98.45137
2021-05-07 12:03:24.873050,-88.28844
2021-05-07 12:03:24.888680,-70.96971
2021-05-07 12:03:24.904300,-48.15435
2021-05-07 12:03:24.919930,-22.47963
2021-05-07 12:03:24.935560,3.216831
2021-05-07 12:03:24.951180,26.75967
2021-05-07 12:03:24.966810,46.87334
2021-05-07 12:03:24.982430,63.08648
2021-05-07 12:03:24.998060,75.34393
2021-05-07 12:03:25.013680,83.54901
2021-05-07 12:03:25.029310,87.5252
2021-05-07 12:03:25.044940,87.22577
2021-05-07 12:03:25.060560,82.9101
2021-05-07 12:03:25.076190,75.26653
2021-05-07 12:03:25.091810,65.34816
2021-05-07 12:03:25.107440,54.20844
2021-05-07 12:03:25.123060,42.73048
2021-05-07 12:03:25.138690,31.54349
2021-05-07 12:03:25.154320,21.0807
2021-05-07 12:03:25.169940,11.74439
2021-05-07 12:03:25.185570,3.998848
2021-05-07 12:03:25.201190,-1.836617
2021-05-07 12:03:25.216820,-5.684105
2021-05-07 12:03:25.232440,-8.103752
2021-05-07 12:03:25.248070,-10.16653
2021-05-07 12:03:25.263700,-13.2298
2021-05-07 12:03:25.279320,-18.31399
2021-05-07 12:03:25.294950,-25.63508
2021-05-07 12:03:25.310570,-34.3401
2021-05-07 12:03:25.326200,-42.88268
2021-05-07 12:03:25.341820,-49.82871
2021-05-07 12:03:25.357450,-54.46856
2021-05-07 12:03:25.373080,-57.10529
2021-05-07 12:03:25.388700,-58.53769
2021-05-07 12:03:25.404330,-59.41957
2021-05-07 12:03:25.419950,-59.66862
2021-05-07 12:03:25.435580,-58.5966
2021-05-07 12:03:25.466830,-50.22839
2021-05-07 12:03:25.482460,-43.83758
2021-05-07 12:03:25.498080,-37.81892
2021-05-07 12:03:25.513710,-33.63535
2021-05-07 12:03:25.529330,-31.86858
2021-05-07 12:03:25.544960,-32.03474
2021-05-07 12:03:25.560580,-32.87604
2021-05-07 12:03:25.576210,-33.0829
2021-05-07 12:03:25.591840,-31.76002
2021-05-07 12:03:25.607460,-28.68736
2021-05-07 12:03:25.623090,-24.18396
2021-05-07 12:03:25.638710,-18.71146
2021-05-07 12:03:25.654340,-12.80247
2021-05-07 12:03:25.669960,-7.006035
2021-05-07 12:03:25.685590,-1.918411
2021-05-07 12:03:25.701220,1.851341
2021-05-07 12:03:25.716840,3.892479
2021-05-07 12:03:25.732470,4.069542
2021-05-07 12:03:25.748090,2.597458
2021-05-07 12:03:25.763720,-0.08648682
2021-05-07 12:03:25.779340,-3.480495
2021-05-07 12:03:25.794970,-7.162251
2021-05-07 12:03:25.810600,-10.77232
2021-05-07 12:03:25.826220,-14.05855
2021-05-07 12:03:25.841850,-16.84784
2021-05-07 12:03:25.857470,-18.98322
2021-05-07 12:03:25.873100,-20.57087
2021-05-07 12:03:25.888720,-21.98425
2021-05-07 12:03:25.904350,-23.86505
2021-05-07 12:03:25.919980,-26.73094
2021-05-07 12:03:25.935600,-30.41208
2021-05-07 12:03:25.951230,-33.70136
2021-05-07 12:03:25.966850,-34.69144
2021-05-07 12:03:25.982480,-31.72991
2021-05-07 12:03:25.998100,-24.41315
2021-05-07 12:03:26.013730,-14.2731
2021-05-07 12:03:26.029360,-4.331743
2021-05-07 12:03:26.044980,2.082869
2021-05-07 12:03:26.060610,2.864615
2021-05-07 12:03:26.076230,-2.002032
2021-05-07 12:03:26.091860,-10.56712
2021-05-07 12:03:26.107480,-20.05293
2021-05-07 12:03:26.123110,-28.2906
2021-05-07 12:03:26.138740,-34.49419
2021-05-07 12:03:26.154360,-39.11234
2021-05-07 12:03:26.169990,-42.99179
2021-05-07 12:03:26.185610,-46.35501
2021-05-07 12:03:26.201240,-48.31385
2021-05-07 12:03:26.216860,-47.20628
2021-05-07 12:03:26.232490,-41.55931
2021-05-07 12:03:26.248120,-31.00197
2021-05-07 12:03:26.263740,-16.68518
2021-05-07 12:03:26.279370,-0.9955826
2021-05-07 12:03:26.294990,13.39921
2021-05-07 12:03:26.310620,24.61545
2021-05-07 12:03:26.326240,32.22008
2021-05-07 12:03:26.341870,37.04824
2021-05-07 12:03:26.357500,40.54527
2021-05-07 12:03:26.373120,43.64182
2021-05-07 12:03:26.388750,46.22693
2021-05-07 12:03:26.404370,47.11281
2021-05-07 12:03:26.420000,44.92013
2021-05-07 12:03:26.435620,38.98951
2021-05-07 12:03:26.451250,29.98249
2021-05-07 12:03:26.466880,19.65611
2021-05-07 12:03:26.482500,10.05951
2021-05-07 12:03:26.498130,2.818832
2021-05-07 12:03:26.513750,-1.362022
2021-05-07 12:03:26.529380,-2.38961
2021-05-07 12:03:26.545000,-0.5339813
2021-05-07 12:03:26.560630,3.855896
2021-05-07 12:03:26.576260,10.36342
2021-05-07 12:03:26.591880,18.36591
2021-05-07 12:03:26.607510,27.10872
2021-05-07 12:03:26.623130,35.86798
2021-05-07 12:03:26.638760,44.09862
2021-05-07 12:03:26.654380,51.53397
2021-05-07 12:03:26.670010,57.96355
2021-05-07 12:03:26.685640,62.89082
2021-05-07 12:03:26.701260,65.29289
2021-05-07 12:03:26.716890,63.86084
2021-05-07 12:03:26.732510,57.64856
2021-05-07 12:03:26.748140,46.80724
2021-05-07 12:03:26.763760,32.99541
2021-05-07 12:03:26.779390,18.88196
2021-05-07 12:03:26.795020,7.347443
2021-05-07 12:03:26.810640,0.3363495
2021-05-07 12:03:26.826270,-1.763184
2021-05-07 12:03:26.841890,-0.2195892
2021-05-07 12:03:26.857520,2.793777
2021-05-07 12:03:26.873140,5.103058
2021-05-07 12:03:26.888770,5.501984
2021-05-07 12:03:26.904400,3.98111
2021-05-07 12:03:26.920020,1.2901
2021-05-07 12:03:26.935650,-1.791656
2021-05-07 12:03:26.951270,-5.080795
2021-05-07 12:03:26.966900,-8.895111
2021-05-07 12:03:26.982520,-13.65533
2021-05-07 12:03:26.998150,-19.17183
2021-05-07 12:03:27.013780,-24.65694
2021-05-07 12:03:27.029400,-28.99574
2021-05-07 12:03:27.045030,-31.33527
2021-05-07 12:03:27.060650,-31.5096
2021-05-07 12:03:27.076280,-29.92839
2021-05-07 12:03:27.091910,-26.98201
2021-05-07 12:03:27.107530,-22.37189
2021-05-07 12:03:27.123160,-14.90112
2021-05-07 12:03:27.138780,-3.060547
2021-05-07 12:03:27.154410,13.96803
2021-05-07 12:03:27.170030,35.49098
2021-05-07 12:03:27.185660,59.33437
2021-05-07 12:03:27.201290,82.70845
2021-05-07 12:03:27.216910,103.3196
2021-05-07 12:03:27.232540,120.1117
2021-05-07 12:03:27.248160,133.1991
2021-05-07 12:03:27.263790,143.295
2021-05-07 12:03:27.279410,151.07
2021-05-07 12:03:27.295040,156.9675
2021-05-07 12:03:27.310670,161.3389
2021-05-07 12:03:27.326290,164.5318
2021-05-07 12:03:27.341920,166.7361
2021-05-07 12:03:27.357540,167.6836
2021-05-07 12:03:27.373170,166.5381
2021-05-07 12:03:27.388790,162.2541
2021-05-07 12:03:27.404420,154.1971
2021-05-07 12:03:27.420050,142.6398
2021-05-07 12:03:27.435670,128.7808
2021-05-07 12:03:27.451300,114.1636
2021-05-07 12:03:27.466920,99.99818
2021-05-07 12:03:27.482550,86.97009
2021-05-07 12:03:27.498170,75.43583
2021-05-07 12:03:27.513800,65.57631
2021-05-07 12:03:27.529430,57.22374
2021-05-07 12:03:27.545050,49.5192
2021-05-07 12:03:27.560680,40.61632
2021-05-07 12:03:27.576300,28.19469
2021-05-07 12:03:27.591930,10.5324
2021-05-07 12:03:27.607550,-12.3092
2021-05-07 12:03:27.623180,-38.02537
2021-05-07 12:03:27.638810,-62.7953
2021-05-07 12:03:27.654430,-82.82741
2021-05-07 12:03:27.670060,-95.92998
2021-05-07 12:03:27.685680,-101.9879
2021-05-07 12:03:27.701310,-102.4827
2021-05-07 12:03:27.716930,-99.38109
2021-05-07 12:03:27.732560,-94.20338
2021-05-07 12:03:27.748190,-87.73387
2021-05-07 12:03:27.763810,-80.39867
2021-05-07 12:03:27.779440,-72.74271
2021-05-07 12:03:27.795060,-65.66292
2021-05-07 12:03:27.810690,-60.13564
2021-05-07 12:03:27.826310,-56.67655
2021-05-07 12:03:27.841940,-55.00092
2021-05-07 12:03:27.857570,-54.17075
2021-05-07 12:03:27.873190,-53.03625
2021-05-07 12:03:27.888820,-50.89128
2021-05-07 12:03:27.904440,-47.82058
2021-05-07 12:03:27.920070,-44.63537
2021-05-07 12:03:27.935690,-42.35145
2021-05-07 12:03:27.951320,-41.59603
2021-05-07 12:03:27.966950,-42.3206
2021-05-07 12:03:27.982570,-43.95239
2021-05-07 12:03:27.998200,-45.75047
2021-05-07 12:03:28.013820,-47.13366
2021-05-07 12:03:28.029450,-47.92809
2021-05-07 12:03:28.045070,-48.19331
2021-05-07 12:03:28.060700,-48.12495
2021-05-07 12:03:28.076330,-47.86392
2021-05-07 12:03:28.091950,-47.43611
2021-05-07 12:03:28.107580,-46.77803
2021-05-07 12:03:28.123200,-45.90627
2021-05-07 12:03:28.138830,-44.80574
2021-05-07 12:03:28.154450,-43.43713
2021-05-07 12:03:28.170080,-41.79092
2021-05-07 12:03:28.185710,-39.95186
2021-05-07 12:03:28.201330,-38.21649
2021-05-07 12:03:28.216960,-37.01698
2021-05-07 12:03:28.232580,-36.85112
2021-05-07 12:03:28.248210,-37.88602
2021-05-07 12:03:28.263830,-39.97945
2021-05-07 12:03:28.279460,-42.55655
2021-05-07 12:03:28.295090,-44.85445
2021-05-07 12:03:28.310710,-46.17343
2021-05-07 12:03:28.326340,-46.02571
2021-05-07 12:03:28.341960,-44.18974
2021-05-07 12:03:28.357590,-40.66757
2021-05-07 12:03:28.373210,-35.68697
2021-05-07 12:03:28.388840,-29.53513
2021-05-07 12:03:28.404470,-22.66483
2021-05-07 12:03:28.420090,-15.55368
2021-05-07 12:03:28.435720,-8.682144
2021-05-07 12:03:28.451340,-2.494003
2021-05-07 12:03:28.466970,2.69429
2021-05-07 12:03:28.482590,6.713898
2021-05-07 12:03:28.498220,9.452057
2021-05-07 12:03:28.513850,10.82755
2021-05-07 12:03:28.529470,10.90326
2021-05-07 12:03:28.545100,9.809036
2021-05-07 12:03:28.560720,7.875381
2021-05-07 12:03:28.576350,5.571609
2021-05-07 12:03:28.591970,3.283707
2021-05-07 12:03:28.607600,1.261765
2021-05-07 12:03:28.623230,-0.5200348
2021-05-07 12:03:28.638850,-2.307114
2021-05-07 12:03:28.654480,-4.455765
2021-05-07 12:03:28.670100,-7.145142
2021-05-07 12:03:28.685730,-10.34773
2021-05-07 12:03:28.701350,-13.78818
2021-05-07 12:03:28.716980,-17.01427
2021-05-07 12:03:28.732610,-19.77823
2021-05-07 12:03:28.748230,-21.98389
2021-05-07 12:03:28.763860,-23.8428
2021-05-07 12:03:28.779480,-25.66901
2021-05-07 12:03:28.795110,-27.77953
2021-05-07 12:03:28.810730,-30.30527
2021-05-07 12:03:28.826360,-33.34567
2021-05-07 12:03:28.841990,-36.90326
2021-05-07 12:03:28.857610,-40.85352
2021-05-07 12:03:28.873240,-44.98253
2021-05-07 12:03:28.888860,-48.70117
2021-05-07 12:03:28.904490,-51.15768
2021-05-07 12:03:28.920110,-51.33551
2021-05-07 12:03:28.935740,-48.46771
2021-05-07 12:03:28.951370,-42.3316
2021-05-07 12:03:28.966990,-33.60425
2021-05-07 12:03:28.982620,-23.5647
2021-05-07 12:03:28.998240,-13.64876
2021-05-07 12:03:29.013870,-5.016983
2021-05-07 12:03:29.029490,1.929276
2021-05-07 12:03:29.045120,7.4048
2021-05-07 12:03:29.060750,11.91287
2021-05-07 12:03:29.076370,15.83511
2021-05-07 12:03:29.092000,19.23183
2021-05-07 12:03:29.107620,21.87672
2021-05-07 12:03:29.123250,23.56877
2021-05-07 12:03:29.138870,24.37415
2021-05-07 12:03:29.154500,24.59268
2021-05-07 12:03:29.170130,24.73611
2021-05-07 12:03:29.185750,25.12222
2021-05-07 12:03:29.201380,25.78065
2021-05-07 12:03:29.217000,26.40851
2021-05-07 12:03:29.232630,26.59846
2021-05-07 12:03:29.248260,26.05632
2021-05-07 12:03:29.263880,24.77953
2021-05-07 12:03:29.279510,22.9805
2021-05-07 12:03:29.295130,20.95712
2021-05-07 12:03:29.310760,19.01344
2021-05-07 12:03:29.326380,17.34973
2021-05-07 12:03:29.342010,16.03996
2021-05-07 12:03:29.357640,15.10544
2021-05-07 12:03:29.373260,14.42664
2021-05-07 12:03:29.388890,13.75995
2021-05-07 12:03:29.404510,12.71886
2021-05-07 12:03:29.420140,10.94093
2021-05-07 12:03:29.435760,8.27623
2021-05-07 12:03:29.451390,5.090698
2021-05-07 12:03:29.467020,2.240479
2021-05-07 12:03:29.482640,0.9382172
2021-05-07 12:03:29.498270,2.345779
2021-05-07 12:03:29.513890,7.156052
2021-05-07 12:03:29.529520,15.32013
2021-05-07 12:03:29.545140,25.99037
2021-05-07 12:03:29.560770,37.85208
2021-05-07 12:03:29.576400,49.52513
2021-05-07 12:03:29.592020,59.98485
2021-05-07 12:03:29.607650,68.75769
2021-05-07 12:03:29.623270,75.88904
2021-05-07 12:03:29.638900,81.62833
2021-05-07 12:03:29.654520,86.20827
2021-05-07 12:03:29.670150,89.64903
2021-05-07 12:03:29.685780,91.71689
2021-05-07 12:03:29.701400,92.11555
2021-05-07 12:03:29.717030,90.61464
2021-05-07 12:03:29.732650,87.20581
2021-05-07 12:03:29.748280,82.05022
2021-05-07 12:03:29.763900,75.42101
2021-05-07 12:03:29.779530,67.51187
2021-05-07 12:03:29.795160,58.40327
2021-05-07 12:03:29.810780,47.97739
2021-05-07 12:03:29.826410,36.02504
2021-05-07 12:03:29.842030,22.34096
2021-05-07 12:03:29.857660,6.79364
2021-05-07 12:03:29.873280,-10.5822
2021-05-07 12:03:29.888910,-29.53766
2021-05-07 12:03:29.904540,-49.61951
2021-05-07 12:03:29.920160,-70.16188
2021-05-07 12:03:29.935790,-90.30525
2021-05-07 12:03:29.951410,-109.0528
2021-05-07 12:03:29.967040,-125.4017
2021-05-07 12:03:29.982660,-138.5025
2021-05-07 12:03:29.998290,-147.9087
2021-05-07 12:03:30.013920,-153.7399
2021-05-07 12:03:30.029540,-156.6287
2021-05-07 12:03:30.045170,-157.5231
2021-05-07 12:03:30.060790,-157.2582
2021-05-07 12:03:30.076420,-156.14
2021-05-07 12:03:30.092040,-153.8096
2021-05-07 12:03:30.107670,-149.3508
2021-05-07 12:03:30.123300,-141.8322
2021-05-07 12:03:30.138920,-130.8996
2021-05-07 12:03:30.154550,-117.1384
2021-05-07 12:03:30.170170,-101.965
2021-05-07 12:03:30.185800,-87.09955
2021-05-07 12:03:30.201420,-73.87715
2021-05-07 12:03:30.217050,-62.75677
2021-05-07 12:03:30.232680,-53.40363
2021-05-07 12:03:30.248300,-45.11005
2021-05-07 12:03:30.263930,-37.33074
2021-05-07 12:03:30.279550,-30.02068
2021-05-07 12:03:30.295180,-23.5703
2021-05-07 12:03:30.310800,-18.43053
2021-05-07 12:03:30.326430,-14.84545
2021-05-07 12:03:30.342060,-12.74216
2021-05-07 12:03:30.357680,-11.82912
2021-05-07 12:03:30.373310,-11.6283
2021-05-07 12:03:30.388930,-11.4467
2021-05-07 12:03:30.404560,-10.26739
2021-05-07 12:03:30.420180,-7.006088
2021-05-07 12:03:30.435810,-1.01767
2021-05-07 12:03:30.451440,7.339485
2021-05-07 12:03:30.467060,16.5574
2021-05-07 12:03:30.482690,24.50274
2021-05-07 12:03:30.498310,29.33778
2021-05-07 12:03:30.513940,30.44207
2021-05-07 12:03:30.529560,28.69485
2021-05-07 12:03:30.545190,26.11466
2021-05-07 12:03:30.560820,24.87153
2021-05-07 12:03:30.576440,26.36603
2021-05-07 12:03:30.592070,30.6834
2021-05-07 12:03:30.607690,36.74759
2021-05-07 12:03:30.623320,42.86827
2021-05-07 12:03:30.638940,47.48726
2021-05-07 12:03:30.654570,49.73331
2021-05-07 12:03:30.670200,49.67072
2021-05-07 12:03:30.685820,48.2539
2021-05-07 12:03:30.701450,46.82868
2021-05-07 12:03:30.717070,46.44026
2021-05-07 12:03:30.732700,47.38769
2021-05-07 12:03:30.748320,49.15816
2021-05-07 12:03:30.763950,50.72639
2021-05-07 12:03:30.779580,50.97461
2021-05-07 12:03:30.795200,48.9206
2021-05-07 12:03:30.810830,43.6706
2021-05-07 12:03:30.826450,34.46082
2021-05-07 12:03:30.842080,20.94923
2021-05-07 12:03:30.857700,3.644409
2021-05-07 12:03:30.873330,-15.65301
2021-05-07 12:03:30.888960,-34.05347
2021-05-07 12:03:30.904580,-48.50679
2021-05-07 12:03:30.920210,-56.82754
2021-05-07 12:03:30.935830,-58.30983
2021-05-07 12:03:30.951460,-53.65288
2021-05-07 12:03:30.967080,-44.24677
2021-05-07 12:03:30.982710,-31.44855
2021-05-07 12:03:30.998340,-16.38968
2021-05-07 12:03:31.013960,-0.2583466
2021-05-07 12:03:31.029590,15.41019
2021-05-07 12:03:31.045210,28.65375
2021-05-07 12:03:31.060840,37.61642
2021-05-07 12:03:31.076460,41.29408
2021-05-07 12:03:31.092090,39.8588
2021-05-07 12:03:31.107720,34.51244
2021-05-07 12:03:31.123340,26.97354
2021-05-07 12:03:31.138970,18.83272
2021-05-07 12:03:31.154590,11.23364
2021-05-07 12:03:31.170220,4.772751
2021-05-07 12:03:31.185840,-0.3946991
2021-05-07 12:03:31.201470,-4.374512
2021-05-07 12:03:31.217100,-7.349503
2021-05-07 12:03:31.232720,-9.596329
2021-05-07 12:03:31.248350,-11.37811
2021-05-07 12:03:31.263970,-12.76094
2021-05-07 12:03:31.279600,-13.63501
2021-05-07 12:03:31.295220,-13.60559
2021-05-07 12:03:31.310850,-12.1301
2021-05-07 12:03:31.326480,-8.655884
2021-05-07 12:03:31.342100,-2.935638
2021-05-07 12:03:31.357730,4.771149
2021-05-07 12:03:31.373350,13.59387
2021-05-07 12:03:31.388980,22.36551
2021-05-07 12:03:31.404600,30.12451
2021-05-07 12:03:31.420230,36.53394
2021-05-07 12:03:31.435860,41.99573
2021-05-07 12:03:31.451480,47.20581
2021-05-07 12:03:31.467110,52.56396
2021-05-07 12:03:31.482730,57.66083
2021-05-07 12:03:31.498360,61.4837
2021-05-07 12:03:31.513980,62.95688
2021-05-07 12:03:31.529610,61.67368
2021-05-07 12:03:31.545240,58.1618
2021-05-07 12:03:31.560860,53.48914
2021-05-07 12:03:31.576490,48.71091
2021-05-07 12:03:31.592110,44.34381
2021-05-07 12:03:31.607740,40.2052
2021-05-07 12:03:31.623360,35.69492
2021-05-07 12:03:31.638990,30.22385
2021-05-07 12:03:31.654620,23.50015
2021-05-07 12:03:31.670240,15.66199
2021-05-07 12:03:31.685870,7.241913
2021-05-07 12:03:31.701490,-1.016937
2021-05-07 12:03:31.717120,-8.28067
2021-05-07 12:03:31.732740,-13.83948
2021-05-07 12:03:31.748370,-17.46887
2021-05-07 12:03:31.764000,-19.56488
2021-05-07 12:03:31.779620,-21.19235
2021-05-07 12:03:31.795250,-23.7608
2021-05-07 12:03:31.810870,-28.54962
2021-05-07 12:03:31.826500,-36.13098
2021-05-07 12:03:31.842120,-46.16815
2021-05-07 12:03:31.857750,-57.4455
2021-05-07 12:03:31.873380,-68.25177
2021-05-07 12:03:31.889000,-76.83194
2021-05-07 12:03:31.904630,-81.72604
2021-05-07 12:03:31.935880,-77.21759
2021-05-07 12:03:31.951510,-67.88461
2021-05-07 12:03:31.967130,-55.03064
2021-05-07 12:03:31.982760,-40.34592
2021-05-07 12:03:31.998380,-25.81793
2021-05-07 12:03:32.014010,-13.29828
2021-05-07 12:03:32.029630,-3.989746
2021-05-07 12:03:32.045260,1.869629
2021-05-07 12:03:32.060890,4.99234
2021-05-07 12:03:32.076510,6.580811
2021-05-07 12:03:32.092140,7.780914
2021-05-07 12:03:32.107760,9.203644
2021-05-07 12:03:32.123390,10.83374
2021-05-07 12:03:32.139010,12.33105
2021-05-07 12:03:32.154640,13.48495
2021-05-07 12:03:32.170270,14.55331
2021-05-07 12:03:32.185890,16.10379
2021-05-07 12:03:32.201520,18.53952
2021-05-07 12:03:32.217140,21.69836
2021-05-07 12:03:32.232770,24.83759
2021-05-07 12:03:32.248390,27.03714
2021-05-07 12:03:32.264020,27.72729
2021-05-07 12:03:32.279650,26.99893
2021-05-07 12:03:32.295270,25.4852
2021-05-07 12:03:32.310900,23.9184
2021-05-07 12:03:32.326520,22.67819
2021-05-07 12:03:32.342150,21.53568
2021-05-07 12:03:32.357770,19.82147
2021-05-07 12:03:32.373400,16.81702
2021-05-07 12:03:32.389030,12.22058
2021-05-07 12:03:32.404650,6.223633
2021-05-07 12:03:32.420280,-0.4796143
2021-05-07 12:03:32.435900,-6.943237
2021-05-07 12:03:32.451530,-12.27338
2021-05-07 12:03:32.467150,-15.71375
2021-05-07 12:03:32.482780,-16.77643
2021-05-07 12:03:32.498410,-15.297
2021-05-07 12:03:32.514030,-11.5434
2021-05-07 12:03:32.529660,-6.151917
2021-05-07 12:03:32.545280,-0.02740479
2021-05-07 12:03:32.560910,6.000732
2021-05-07 12:03:32.576530,11.38721
2021-05-07 12:03:32.592160,15.98932
2021-05-07 12:03:32.607790,19.89386
2021-05-07 12:03:32.623410,23.08771
2021-05-07 12:03:32.639040,25.26929
2021-05-07 12:03:32.654660,25.85291
2021-05-07 12:03:32.670290,24.37476
2021-05-07 12:03:32.685910,20.91052
2021-05-07 12:03:32.701540,16.297
2021-05-07 12:03:32.717170,11.87628
2021-05-07 12:03:32.732790,8.918518
2021-05-07 12:03:32.748420,8.057678
2021-05-07 12:03:32.764040,8.944824
2021-05-07 12:03:32.779670,10.47986
2021-05-07 12:03:32.795290,11.36774
2021-05-07 12:03:32.810920,10.82599
2021-05-07 12:03:32.826550,8.924377
2021-05-07 12:03:32.842170,6.599854
2021-05-07 12:03:32.857800,5.082153
2021-05-07 12:03:32.873420,5.220764
2021-05-07 12:03:32.889050,7.036133
2021-05-07 12:03:32.904670,9.665649
2021-05-07 12:03:32.920300,11.72052
2021-05-07 12:03:32.935930,11.89288
2021-05-07 12:03:32.951550,9.499146
2021-05-07 12:03:32.967180,4.630798
2021-05-07 12:03:32.982800,-1.866089
2021-05-07 12:03:32.998430,-8.796631
2021-05-07 12:03:33.014050,-14.94763
2021-05-07 12:03:33.029680,-19.23346
2021-05-07 12:03:33.045310,-20.77124
2021-05-07 12:03:33.060930,-18.89313
2021-05-07 12:03:33.076560,-13.30524
2021-05-07 12:03:33.092180,-4.287781
2021-05-07 12:03:33.107810,7.177063
2021-05-07 12:03:33.123430,19.51062
2021-05-07 12:03:33.139060,31.03217
2021-05-07 12:03:33.154690,40.5824
2021-05-07 12:03:33.170310,47.9884
2021-05-07 12:03:33.185940,54.00006
2021-05-07 12:03:33.201560,59.67377
2021-05-07 12:03:33.217190,65.58289
2021-05-07 12:03:33.232810,71.289
2021-05-07 12:03:33.248440,75.56158
2021-05-07 12:03:33.264070,77.0603
2021-05-07 12:03:33.279690,75.22021
2021-05-07 12:03:33.295320,70.65845
2021-05-07 12:03:33.310940,64.90704
2021-05-07 12:03:33.326570,59.54633
2021-05-07 12:03:33.342190,55.41028
2021-05-07 12:03:33.357820,52.2049
2021-05-07 12:03:33.373450,48.84875
2021-05-07 12:03:33.389070,44.26733
2021-05-07 12:03:33.404700,38.04437
2021-05-07 12:03:33.420320,30.6991
2021-05-07 12:03:33.435950,23.35992
2021-05-07 12:03:33.451570,17.16302
2021-05-07 12:03:33.467200,12.70734
2021-05-07 12:03:33.482830,9.869385
2021-05-07 12:03:33.498450,7.914978
2021-05-07 12:03:33.514080,5.802551
2021-05-07 12:03:33.529700,2.606567
2021-05-07 12:03:33.545330,-2.216309
2021-05-07 12:03:33.560950,-8.563965
2021-05-07 12:03:33.576580,-15.69238
2021-05-07 12:03:33.592210,-22.46741
2021-05-07 12:03:33.607830,-27.66132
2021-05-07 12:03:33.623460,-30.4931
2021-05-07 12:03:33.639080,-30.92175
2021-05-07 12:03:33.654710,-29.67682
2021-05-07 12:03:33.670330,-27.84875
2021-05-07 12:03:33.685960,-26.36346
2021-05-07 12:03:33.701590,-25.48901
2021-05-07 12:03:33.717210,-24.76648
2021-05-07 12:03:33.732840,-23.47211
2021-05-07 12:03:33.748460,-21.1311
2021-05-07 12:03:33.764090,-18.06982
2021-05-07 12:03:33.779710,-15.31281
2021-05-07 12:03:33.795340,-14.06177
2021-05-07 12:03:33.810970,-14.91632
2021-05-07 12:03:33.826590,-17.45563
2021-05-07 12:03:33.842220,-20.40326
2021-05-07 12:03:33.857840,-22.29224
2021-05-07 12:03:33.873470,-22.30457
2021-05-07 12:03:33.889090,-20.62103
2021-05-07 12:03:33.904720,-18.17487
2021-05-07 12:03:33.920350,-15.98645
2021-05-07 12:03:33.935970,-14.49518
2021-05-07 12:03:33.951600,-13.40771
2021-05-07 12:03:33.967220,-12.02271
2021-05-07 12:03:33.982850,-9.774292
2021-05-07 12:03:33.998470,-6.599976
2021-05-07 12:03:34.014100,-2.887939
2021-05-07 12:03:34.029730,0.9412842
2021-05-07 12:03:34.045350,4.805237
2021-05-07 12:03:34.060980,9.048096
2021-05-07 12:03:34.076600,14.17633
2021-05-07 12:03:34.092230,20.20105
2021-05-07 12:03:34.107860,26.35107
2021-05-07 12:03:34.123480,31.14331
2021-05-07 12:03:34.154730,30.92877
2021-05-07 12:03:34.170360,25.36493
2021-05-07 12:03:34.185980,18.0188
2021-05-07 12:03:34.201610,11.32465
2021-05-07 12:03:34.217240,7.562866
2021-05-07 12:03:34.232860,8.000366
2021-05-07 12:03:34.248490,12.54004
2021-05-07 12:03:34.264110,19.96124
2021-05-07 12:03:34.279740,28.61292
2021-05-07 12:03:34.295360,37.05139
2021-05-07 12:03:34.310990,44.45844
2021-05-07 12:03:34.326620,50.54944
2021-05-07 12:03:34.342240,55.25641
2021-05-07 12:03:34.357870,58.46246
2021-05-07 12:03:34.373490,60.08582
2021-05-07 12:03:34.389120,60.12585
2021-05-07 12:03:34.404740,58.74011
2021-05-07 12:03:34.420370,56.24811
2021-05-07 12:03:34.436000,52.89636
2021-05-07 12:03:34.451620,48.86176
2021-05-07 12:03:34.467250,44.18329
2021-05-07 12:03:34.482870,38.93665
2021-05-07 12:03:34.498500,33.2818
2021-05-07 12:03:34.514120,27.56146
2021-05-07 12:03:34.529750,22.19196
2021-05-07 12:03:34.545380,17.61652
2021-05-07 12:03:34.561000,14.23431
2021-05-07 12:03:34.576630,12.37628
2021-05-07 12:03:34.592250,12.31561
2021-05-07 12:03:34.607880,14.07849
2021-05-07 12:03:34.623500,17.35699
2021-05-07 12:03:34.639130,21.40326
2021-05-07 12:03:34.654760,25.12231
2021-05-07 12:03:34.670380,27.34985
2021-05-07 12:03:34.686010,27.23895
2021-05-07 12:03:34.701630,24.5589
2021-05-07 12:03:34.717260,19.84021
2021-05-07 12:03:34.732880,14.37451
2021-05-07 12:03:34.748510,9.911804
2021-05-07 12:03:34.764140,8.137756
2021-05-07 12:03:34.779760,10.07922
2021-05-07 12:03:34.795390,15.5578
2021-05-07 12:03:34.811010,23.18195
2021-05-07 12:03:34.826640,30.93018
2021-05-07 12:03:34.842260,36.96774
2021-05-07 12:03:34.857890,40.38321
2021-05-07 12:03:34.873520,41.42819
2021-05-07 12:03:34.889140,41.12683
2021-05-07 12:03:34.904770,40.4902
2021-05-07 12:03:34.920390,39.95517
2021-05-07 12:03:34.936020,39.14465
2021-05-07 12:03:34.951640,37.22516
2021-05-07 12:03:34.967270,33.58939
2021-05-07 12:03:34.982900,28.32639
2021-05-07 12:03:34.998520,22.26227
2021-05-07 12:03:35.014150,16.49249
2021-05-07 12:03:35.029770,11.83136
2021-05-07 12:03:35.045400,8.330841
2021-05-07 12:03:35.061020,5.297119
2021-05-07 12:03:35.076650,1.581726
2021-05-07 12:03:35.092280,-4.022247
2021-05-07 12:03:35.107900,-12.25665
2021-05-07 12:03:35.123530,-23.25818
2021-05-07 12:03:35.139150,-36.45883
2021-05-07 12:03:35.154780,-50.936
2021-05-07 12:03:35.170400,-65.68533
2021-05-07 12:03:35.186030,-80.01135
2021-05-07 12:03:35.201660,-93.5452
2021-05-07 12:03:35.217280,-106.0817
2021-05-07 12:03:35.232910,-117.2574
2021-05-07 12:03:35.248530,-126.2653
2021-05-07 12:03:35.264160,-131.9968
2021-05-07 12:03:35.279780,-133.2126
2021-05-07 12:03:35.295410,-129.0311
2021-05-07 12:03:35.311040,-119.2413
2021-05-07 12:03:35.326660,-104.2696
2021-05-07 12:03:35.342290,-84.99106
2021-05-07 12:03:35.357910,-62.39236
2021-05-07 12:03:35.373540,-37.29568
2021-05-07 12:03:35.389160,-10.44019
2021-05-07 12:03:35.404790,17.33252
2021-05-07 12:03:35.420420,45.00775
2021-05-07 12:03:35.436040,71.31067
2021-05-07 12:03:35.451670,94.67375
2021-05-07 12:03:35.467290,113.3857
2021-05-07 12:03:35.482920,125.7637
2021-05-07 12:03:35.498540,130.555
2021-05-07 12:03:35.514170,127.4705
2021-05-07 12:03:35.529800,117.5034
2021-05-07 12:03:35.545420,102.8016
2021-05-07 12:03:35.561050,86.1277
2021-05-07 12:03:35.576670,70.08275
2021-05-07 12:03:35.592300,56.34514
2021-05-07 12:03:35.607920,45.50861
2021-05-07 12:03:35.623550,37.22549
2021-05-07 12:03:35.639180,30.63597
2021-05-07 12:03:35.654800,24.86151
2021-05-07 12:03:35.670430,19.23206
2021-05-07 12:03:35.686050,13.32979
2021-05-07 12:03:35.701680,7.026428
2021-05-07 12:03:35.717300,0.3978424
2021-05-07 12:03:35.732930,-6.36097
2021-05-07 12:03:35.748560,-12.98985
2021-05-07 12:03:35.764180,-19.33475
2021-05-07 12:03:35.779810,-25.52567
2021-05-07 12:03:35.795430,-31.79009
2021-05-07 12:03:35.811060,-38.41803
2021-05-07 12:03:35.826680,-45.48323
2021-05-07 12:03:35.842310,-52.6784
2021-05-07 12:03:35.857940,-59.4361
2021-05-07 12:03:35.873560,-65.01045
2021-05-07 12:03:35.889190,-68.68719
2021-05-07 12:03:35.904810,-69.95914
2021-05-07 12:03:35.920440,-68.62914
2021-05-07 12:03:35.936060,-64.75282
2021-05-07 12:03:35.951690,-58.69729
2021-05-07 12:03:35.967320,-51.02627
2021-05-07 12:03:35.982940,-42.36985
2021-05-07 12:03:35.998570,-33.48041
2021-05-07 12:03:36.014190,-25.03395
2021-05-07 12:03:36.029820,-17.45344
2021-05-07 12:03:36.045440,-10.85378
2021-05-07 12:03:36.061070,-5.015258
2021-05-07 12:03:36.076700,0.3456774
2021-05-07 12:03:36.092320,5.228813
2021-05-07 12:03:36.107950,9.173307
2021-05-07 12:03:36.123570,11.51874
2021-05-07 12:03:36.139200,11.66959
2021-05-07 12:03:36.154820,9.620838
2021-05-07 12:03:36.170450,5.985821
2021-05-07 12:03:36.186080,1.659035
2021-05-07 12:03:36.201700,-2.782467
2021-05-07 12:03:36.217330,-7.290009
2021-05-07 12:03:36.232950,-12.27445
2021-05-07 12:03:36.248580,-18.06574
2021-05-07 12:03:36.264200,-24.35844
2021-05-07 12:03:36.279830,-30.26984
2021-05-07 12:03:36.295460,-34.69809
2021-05-07 12:03:36.311080,-37.11147
2021-05-07 12:03:36.326710,-37.78056
2021-05-07 12:03:36.342330,-37.70734
2021-05-07 12:03:36.357960,-37.96951
2021-05-07 12:03:36.373580,-39.20271
2021-05-07 12:03:36.389210,-41.42461
2021-05-07 12:03:36.404840,-44.23383
2021-05-07 12:03:36.420460,-47.25905
2021-05-07 12:03:36.436090,-50.20495
2021-05-07 12:03:36.451710,-52.90602
2021-05-07 12:03:36.467340,-54.95296
2021-05-07 12:03:36.482960,-55.57777
2021-05-07 12:03:36.498590,-53.78902
2021-05-07 12:03:36.514220,-48.81333
2021-05-07 12:03:36.529840,-40.4711
2021-05-07 12:03:36.545470,-29.48557
2021-05-07 12:03:36.561090,-17.23643
2021-05-07 12:03:36.576720,-5.316856
2021-05-07 12:03:36.592350,4.955559
2021-05-07 12:03:36.607970,12.97995
2021-05-07 12:03:36.623600,18.81264
2021-05-07 12:03:36.639220,22.89427
2021-05-07 12:03:36.654850,25.55678
2021-05-07 12:03:36.670470,26.89565
2021-05-07 12:03:36.686100,26.73785
2021-05-07 12:03:36.701730,25.0097
2021-05-07 12:03:36.717350,22.08144
2021-05-07 12:03:36.732980,18.74899
2021-05-07 12:03:36.748600,16.07384
2021-05-07 12:03:36.764230,14.84898
2021-05-07 12:03:36.779850,15.22591
2021-05-07 12:03:36.795480,16.67685
2021-05-07 12:03:36.811110,18.22934
2021-05-07 12:03:36.826730,18.93633
2021-05-07 12:03:36.842360,18.23146
2021-05-07 12:03:36.857980,16.0641
2021-05-07 12:03:36.873610,12.70992
2021-05-07 12:03:36.889230,8.572357
2021-05-07 12:03:36.904860,4.032288
2021-05-07 12:03:36.920490,-0.6791992
2021-05-07 12:03:36.936110,-5.332138
2021-05-07 12:03:36.951740,-9.781967
2021-05-07 12:03:36.967360,-13.91379
2021-05-07 12:03:36.982990,-17.71501
2021-05-07 12:03:36.998610,-21.32849
2021-05-07 12:03:37.014240,-25.04353
2021-05-07 12:03:37.029870,-29.09654
2021-05-07 12:03:37.045490,-33.45049
2021-05-07 12:03:37.061120,-37.66751
2021-05-07 12:03:37.076740,-40.86371
2021-05-07 12:03:37.092370,-42.03375
2021-05-07 12:03:37.107990,-40.35338
2021-05-07 12:03:37.123620,-35.51683
2021-05-07 12:03:37.139250,-27.87546
2021-05-07 12:03:37.154870,-18.42624
2021-05-07 12:03:37.170500,-8.409958
2021-05-07 12:03:37.186120,1.020935
2021-05-07 12:03:37.201750,9.062042
2021-05-07 12:03:37.217370,15.38477
2021-05-07 12:03:37.233000,19.97652
2021-05-07 12:03:37.248630,22.93887
2021-05-07 12:03:37.264250,24.39896
2021-05-07 12:03:37.279880,24.43188
2021-05-07 12:03:37.295500,23.07755
2021-05-07 12:03:37.311130,20.48869
2021-05-07 12:03:37.326750,16.9651
2021-05-07 12:03:37.342380,12.9071
2021-05-07 12:03:37.358010,8.764587
2021-05-07 12:03:37.373630,4.866806
2021-05-07 12:03:37.389260,1.299988
2021-05-07 12:03:37.404880,-2.067368
2021-05-07 12:03:37.420510,-5.474442
2021-05-07 12:03:37.436130,-9.024841
2021-05-07 12:03:37.451760,-12.4362
2021-05-07 12:03:37.483010,-15.97
2021-05-07 12:03:37.498640,-14.847
2021-05-07 12:03:37.514260,-11.79721
2021-05-07 12:03:37.529890,-7.562515
2021-05-07 12:03:37.545510,-3.033203
2021-05-07 12:03:37.561140,1.223953
2021-05-07 12:03:37.576770,5.063431
2021-05-07 12:03:37.592390,8.460342
2021-05-07 12:03:37.608020,11.121
2021-05-07 12:03:37.623640,12.39697
2021-05-07 12:03:37.639270,11.64764
2021-05-07 12:03:37.654890,9.001816
2021-05-07 12:03:37.670520,5.619873
2021-05-07 12:03:37.686150,3.387802
2021-05-07 12:03:37.701770,3.942108
2021-05-07 12:03:37.717400,7.71579
2021-05-07 12:03:37.733020,13.60944
2021-05-07 12:03:37.748650,19.54532
2021-05-07 12:03:37.764270,23.57391
2021-05-07 12:03:37.779900,24.73605
2021-05-07 12:03:37.795530,23.20087
2021-05-07 12:03:37.811150,19.66861
2021-05-07 12:03:37.826780,14.80258
2021-05-07 12:03:37.842400,8.950958
2021-05-07 12:03:37.858030,2.399323
2021-05-07 12:03:37.873650,-4.351563
2021-05-07 12:03:37.889280,-10.60593
2021-05-07 12:03:37.904910,-15.91354
2021-05-07 12:03:37.920530,-20.40369
2021-05-07 12:03:37.936160,-24.82123
2021-05-07 12:03:37.951780,-29.88403
2021-05-07 12:03:37.967410,-35.32437
2021-05-07 12:03:37.983030,-39.56381
2021-05-07 12:03:37.998660,-40.19055
2021-05-07 12:03:38.014290,-35.17084
2021-05-07 12:03:38.029910,-24.18164
2021-05-07 12:03:38.045540,-9.2677
2021-05-07 12:03:38.061160,5.784943
2021-05-07 12:03:38.076790,16.86282
2021-05-07 12:03:38.092410,21.1665
2021-05-07 12:03:38.108040,18.22098
2021-05-07 12:03:38.123670,9.812347
2021-05-07 12:03:38.139290,-1.164185
2021-05-07 12:03:38.154920,-11.97131
2021-05-07 12:03:38.170540,-20.93793
2021-05-07 12:03:38.186170,-27.52469
2021-05-07 12:03:38.201790,-31.85236
2021-05-07 12:03:38.217420,-34.11609
2021-05-07 12:03:38.233050,-34.40366
2021-05-07 12:03:38.248670,-32.96945
2021-05-07 12:03:38.264300,-30.50641
2021-05-07 12:03:38.279920,-28.12119
2021-05-07 12:03:38.295550,-26.84369
2021-05-07 12:03:38.311170,-26.86823
2021-05-07 12:03:38.326800,-27.12741
2021-05-07 12:03:38.342430,-25.61673
2021-05-07 12:03:38.358050,-20.38208
2021-05-07 12:03:38.373680,-10.64157
2021-05-07 12:03:38.389300,2.79245
2021-05-07 12:03:38.404930,18.01083
2021-05-07 12:03:38.420550,33.08646
2021-05-07 12:03:38.436180,46.86243
2021-05-07 12:03:38.451810,58.94623
2021-05-07 12:03:38.467430,69.1622
2021-05-07 12:03:38.483060,76.86029
2021-05-07 12:03:38.498680,80.86499
2021-05-07 12:03:38.514310,80.04633
2021-05-07 12:03:38.529930,74.28738
2021-05-07 12:03:38.545560,64.86896
2021-05-07 12:03:38.561190,54.18716
2021-05-07 12:03:38.576810,44.68341
2021-05-07 12:03:38.592440,37.63489
2021-05-07 12:03:38.608060,32.60074
2021-05-07 12:03:38.623690,27.87799
2021-05-07 12:03:38.639310,21.60144
2021-05-07 12:03:38.654940,12.92761
2021-05-07 12:03:38.670570,2.561615
2021-05-07 12:03:38.686190,-7.675507
2021-05-07 12:03:38.701820,-15.7695
2021-05-07 12:03:38.717440,-20.45343
2021-05-07 12:03:38.733070,-21.71387
2021-05-07 12:03:38.748690,-20.58484
2021-05-07 12:03:38.764320,-18.46841
2021-05-07 12:03:38.779950,-16.28079
2021-05-07 12:03:38.795570,-14.10989
2021-05-07 12:03:38.811200,-11.35587
2021-05-07 12:03:38.826820,-7.300812
2021-05-07 12:03:38.842450,-1.695496
2021-05-07 12:03:38.858070,4.959747
2021-05-07 12:03:38.873700,11.62042
2021-05-07 12:03:38.889330,17.09677
2021-05-07 12:03:38.904950,20.36685
2021-05-07 12:03:38.920580,20.92703
2021-05-07 12:03:38.936200,18.83063
2021-05-07 12:03:38.951830,14.75684
2021-05-07 12:03:38.967460,9.9039
2021-05-07 12:03:38.983080,5.747223
2021-05-07 12:03:38.998710,3.522217
2021-05-07 12:03:39.014330,3.641937
2021-05-07 12:03:39.029960,5.380707
2021-05-07 12:03:39.045580,7.006256
2021-05-07 12:03:39.061210,6.545715
2021-05-07 12:03:39.076840,2.741608
2021-05-07 12:03:39.092460,-4.266449
2021-05-07 12:03:39.108090,-12.92599
2021-05-07 12:03:39.123710,-20.96347
2021-05-07 12:03:39.139340,-26.49512
2021-05-07 12:03:39.154960,-28.84979
2021-05-07 12:03:39.170590,-28.66821
2021-05-07 12:03:39.186220,-27.45541
2021-05-07 12:03:39.201840,-26.67834
2021-05-07 12:03:39.217470,-27.04684
2021-05-07 12:03:39.233090,-28.40851
2021-05-07 12:03:39.248720,-30.06079
2021-05-07 12:03:39.264340,-31.39621
2021-05-07 12:03:39.279970,-32.37466
2021-05-07 12:03:39.295600,-33.49887
2021-05-07 12:03:39.311220,-35.50024
2021-05-07 12:03:39.326850,-38.94617
2021-05-07 12:03:39.342470,-43.90469
2021-05-07 12:03:39.358100,-50.02872
2021-05-07 12:03:39.373720,-56.99094
2021-05-07 12:03:39.389350,-64.65381
2021-05-07 12:03:39.404980,-73.14368
2021-05-07 12:03:39.420600,-82.45987
2021-05-07 12:03:39.436230,-91.95898
2021-05-07 12:03:39.451850,-100.0901
2021-05-07 12:03:39.467480,-104.7229
2021-05-07 12:03:39.483100,-103.7826
2021-05-07 12:03:39.498730,-96.15634
2021-05-07 12:03:39.514360,-82.30743
2021-05-07 12:03:39.529980,-64.11581
2021-05-07 12:03:39.545610,-44.25293
2021-05-07 12:03:39.561230,-25.26471
2021-05-07 12:03:39.576860,-8.824066
2021-05-07 12:03:39.592480,4.448669
2021-05-07 12:03:39.608110,14.67548
2021-05-07 12:03:39.623740,22.32449
2021-05-07 12:03:39.639360,27.72922
2021-05-07 12:03:39.654990,30.96286
2021-05-07 12:03:39.670610,31.99905
2021-05-07 12:03:39.686240,30.87262
2021-05-07 12:03:39.701860,27.96426
2021-05-07 12:03:39.717490,23.98944
2021-05-07 12:03:39.733120,19.84174
2021-05-07 12:03:39.748740,16.32086
2021-05-07 12:03:39.764370,13.88858
2021-05-07 12:03:39.779990,12.44168
2021-05-07 12:03:39.795620,11.44113
2021-05-07 12:03:39.811240,10.29327
2021-05-07 12:03:39.826870,8.544128
2021-05-07 12:03:39.842500,6.192657
2021-05-07 12:03:39.858120,3.609741
2021-05-07 12:03:39.873750,1.228271
2021-05-07 12:03:39.889370,-0.7719421
2021-05-07 12:03:39.905000,-2.558716
2021-05-07 12:03:39.920620,-4.63858
2021-05-07 12:03:39.936250,-7.485809
2021-05-07 12:03:39.951880,-11.13721
2021-05-07 12:03:39.967500,-15.18729
2021-05-07 12:03:39.983130,-18.90454
2021-05-07 12:03:39.998750,-21.54916
2021-05-07 12:03:40.014380,-22.59268
2021-05-07 12:03:40.030000,-21.84802
2021-05-07 12:03:40.045630,-19.22455
2021-05-07 12:03:40.061260,-14.6445
2021-05-07 12:03:40.076880,-8.011658
2021-05-07 12:03:40.092510,0.6730652
2021-05-07 12:03:40.108130,10.98029
2021-05-07 12:03:40.123760,22.01837
2021-05-07 12:03:40.139380,32.54745
2021-05-07 12:03:40.155010,41.44104
2021-05-07 12:03:40.170640,48.01495
2021-05-07 12:03:40.186260,52.22266
2021-05-07 12:03:40.201890,54.52185
2021-05-07 12:03:40.217510,55.49643
2021-05-07 12:03:40.233140,55.55737
2021-05-07 12:03:40.248760,54.77908
2021-05-07 12:03:40.264390,53.08099
2021-05-07 12:03:40.280020,50.45856
2021-05-07 12:03:40.295640,47.19534
2021-05-07 12:03:40.311270,43.86389
2021-05-07 12:03:40.326890,41.02432
2021-05-07 12:03:40.342520,38.90073
2021-05-07 12:03:40.358140,37.2178
2021-05-07 12:03:40.373770,35.33536
2021-05-07 12:03:40.389400,32.5625
2021-05-07 12:03:40.405020,28.63943
2021-05-07 12:03:40.420650,23.91293
2021-05-07 12:03:40.436270,19.13803
2021-05-07 12:03:40.451900,15.05286
2021-05-07 12:03:40.467520,11.95438
2021-05-07 12:03:40.483150,9.56427
2021-05-07 12:03:40.498780,7.136139
2021-05-07 12:03:40.514400,4.052277
2021-05-07 12:03:40.530030,0.1395569
2021-05-07 12:03:40.545650,-4.166443
2021-05-07 12:03:40.561280,-8.003143
2021-05-07 12:03:40.576900,-10.49911
2021-05-07 12:03:40.592530,-11.08856
2021-05-07 12:03:40.608160,-9.496277
2021-05-07 12:03:40.623780,-5.533722
2021-05-07 12:03:40.639410,1.015564
2021-05-07 12:03:40.655030,10.41605
2021-05-07 12:03:40.670660,22.61914
2021-05-07 12:03:40.686280,36.87018
2021-05-07 12:03:40.701910,51.63571
2021-05-07 12:03:40.717540,64.86685
2021-05-07 12:03:40.733160,74.52969
2021-05-07 12:03:40.748790,79.259
2021-05-07 12:03:40.764410,78.56204
2021-05-07 12:03:40.780040,72.70203
2021-05-07 12:03:40.795660,62.33817
2021-05-07 12:03:40.811290,48.30417
2021-05-07 12:03:40.826920,31.51425
2021-05-07 12:03:40.842540,13.17212
2021-05-07 12:03:40.858170,-5.287903
2021-05-07 12:03:40.873790,-22.38239
2021-05-07 12:03:40.889420,-37.00909
2021-05-07 12:03:40.905040,-48.76984
2021-05-07 12:03:40.920670,-58.09
2021-05-07 12:03:40.936300,-65.87149
2021-05-07 12:03:40.951920,-73.04123
2021-05-07 12:03:40.967550,-80.22986
2021-05-07 12:03:40.983170,-87.46573
2021-05-07 12:03:40.998800,-94.36957
2021-05-07 12:03:41.014420,-100.2655
2021-05-07 12:03:41.030050,-104.3364
2021-05-07 12:03:41.045680,-105.9061
2021-05-07 12:03:41.061300,-104.6372
2021-05-07 12:03:41.076930,-100.7563
2021-05-07 12:03:41.092550,-95.12802
2021-05-07 12:03:41.108180,-89.08572
2021-05-07 12:03:41.123800,-83.85443
2021-05-07 12:03:41.139430,-80.07605
2021-05-07 12:03:41.155060,-77.4838
2021-05-07 12:03:41.170680,-75.04004
2021-05-07 12:03:41.186310,-71.49091
2021-05-07 12:03:41.201930,-65.92126
2021-05-07 12:03:41.217560,-57.98306
2021-05-07 12:03:41.233190,-47.91849
2021-05-07 12:03:41.248810,-36.29196
2021-05-07 12:03:41.264440,-23.65793
2021-05-07 12:03:41.280060,-10.43939
2021-05-07 12:03:41.295690,3.048218
2021-05-07 12:03:41.311310,16.53256
2021-05-07 12:03:41.326940,29.59998
2021-05-07 12:03:41.342570,41.70688
2021-05-07 12:03:41.358190,52.29932
2021-05-07 12:03:41.373820,60.89294
2021-05-07 12:03:41.389440,67.14859
2021-05-07 12:03:41.405070,71.02029
2021-05-07 12:03:41.420690,72.7067
2021-05-07 12:03:41.436320,72.67273
2021-05-07 12:03:41.451950,71.5654
2021-05-07 12:03:41.467570,70.05096
2021-05-07 12:03:41.483200,68.7016
2021-05-07 12:03:41.498820,67.96027
2021-05-07 12:03:41.514450,68.06824
2021-05-07 12:03:41.530070,69.08029
2021-05-07 12:03:41.545700,70.83896
2021-05-07 12:03:41.561330,72.94711
2021-05-07 12:03:41.576950,74.85587
2021-05-07 12:03:41.592580,76.03091
2021-05-07 12:03:41.608200,76.20499
2021-05-07 12:03:41.623830,75.4801
2021-05-07 12:03:41.639450,74.25931
2021-05-07 12:03:41.655080,72.91586
2021-05-07 12:03:41.670710,71.43555
2021-05-07 12:03:41.686330,69.17773
2021-05-07 12:03:41.701960,64.93979
2021-05-07 12:03:41.717580,57.43439
2021-05-07 12:03:41.733210,45.99173
2021-05-07 12:03:41.748830,30.95395
2021-05-07 12:03:41.764460,13.70175
2021-05-07 12:03:41.780090,-3.741394
2021-05-07 12:03:41.795710,-19.4259
2021-05-07 12:03:41.811340,-31.9794
2021-05-07 12:03:41.826960,-40.81262
2021-05-07 12:03:41.842590,-46.03537
2021-05-07 12:03:41.858210,-48.117
2021-05-07 12:03:41.873840,-47.62982
2021-05-07 12:03:41.889470,-45.24765
2021-05-07 12:03:41.905090,-41.82709
2021-05-07 12:03:41.920720,-38.46802
2021-05-07 12:03:41.936340,-36.33524
2021-05-07 12:03:41.951970,-36.36539
2021-05-07 12:03:41.967590,-38.90219
2021-05-07 12:03:41.983220,-43.54602
2021-05-07 12:03:41.998850,-49.2684
2021-05-07 12:03:42.014470,-54.76791
2021-05-07 12:03:42.030100,-58.90054
2021-05-07 12:03:42.045720,-61.02844
2021-05-07 12:03:42.061350,-61.1796
2021-05-07 12:03:42.076970,-59.87912
2021-05-07 12:03:42.092600,-57.92102
2021-05-07 12:03:42.108230,-55.95715
2021-05-07 12:03:42.123850,-54.24826
2021-05-07 12:03:42.139480,-52.60815
2021-05-07 12:03:42.155100,-50.57608
2021-05-07 12:03:42.170730,-47.71661
2021-05-07 12:03:42.186350,-43.91483
2021-05-07 12:03:42.201980,-39.50836
2021-05-07 12:03:42.217610,-35.20197
2021-05-07 12:03:42.233230,-31.8002
2021-05-07 12:03:42.248860,-29.92642
2021-05-07 12:03:42.264480,-29.88364
2021-05-07 12:03:42.280110,-31.60455
2021-05-07 12:03:42.295730,-34.63333
2021-05-07 12:03:42.311360,-38.19754
2021-05-07 12:03:42.326990,-41.22559
2021-05-07 12:03:42.342610,-42.61032
2021-05-07 12:03:42.358240,-41.41452
2021-05-07 12:03:42.373860,-37.21893
2021-05-07 12:03:42.389490,-30.20721
2021-05-07 12:03:42.405110,-21.08823
2021-05-07 12:03:42.420740,-10.85416
2021-05-07 12:03:42.436370,-0.4292908
2021-05-07 12:03:42.451990,9.519196
2021-05-07 12:03:42.467620,18.55655
2021-05-07 12:03:42.483240,26.34555
2021-05-07 12:03:42.498870,32.56067
2021-05-07 12:03:42.514490,36.82468
2021-05-07 12:03:42.530120,38.8746
2021-05-07 12:03:42.545750,38.70322
2021-05-07 12:03:42.561370,36.63342
2021-05-07 12:03:42.577000,33.18741
2021-05-07 12:03:42.592620,28.87067
2021-05-07 12:03:42.608250,23.97507
2021-05-07 12:03:42.623870,18.45804
2021-05-07 12:03:42.639500,11.98096
2021-05-07 12:03:42.655130,4.054504
2021-05-07 12:03:42.670750,-5.764313
2021-05-07 12:03:42.686380,-17.66461
2021-05-07 12:03:42.702000,-31.44788
2021-05-07 12:03:42.717630,-46.39771
2021-05-07 12:03:42.733250,-61.44119
2021-05-07 12:03:42.748880,-75.24338
2021-05-07 12:03:42.764510,-86.5976
2021-05-07 12:03:42.780130,-94.71054
2021-05-07 12:03:42.795760,-99.36337
2021-05-07 12:03:42.811380,-100.9869
2021-05-07 12:03:42.827010,-100.4281
2021-05-07 12:03:42.842630,-98.71216
2021-05-07 12:03:42.858260,-96.65439
2021-05-07 12:03:42.873890,-94.6539
2021-05-07 12:03:42.889510,-92.55939
2021-05-07 12:03:42.905140,-89.77313
2021-05-07 12:03:42.920760,-85.4411
2021-05-07 12:03:42.936390,-78.71408
2021-05-07 12:03:42.952010,-69.04541
2021-05-07 12:03:42.967640,-56.30559
2021-05-07 12:03:42.983270,-40.81265
2021-05-07 12:03:42.998890,-23.23701
2021-05-07 12:03:43.014520,-4.387253
2021-05-07 12:03:43.030140,14.90552
2021-05-07 12:03:43.045770,33.94218
2021-05-07 12:03:43.061390,52.14908
2021-05-07 12:03:43.077020,69.08691
2021-05-07 12:03:43.092650,84.45352
2021-05-07 12:03:43.108270,98.10043
2021-05-07 12:03:43.123900,110.1469
2021-05-07 12:03:43.139520,120.9168
2021-05-07 12:03:43.155150,130.9143
2021-05-07 12:03:43.170770,140.7195
2021-05-07 12:03:43.186400,150.8458
2021-05-07 12:03:43.202030,161.557
2021-05-07 12:03:43.217650,172.7605
2021-05-07 12:03:43.233280,183.9224
2021-05-07 12:03:43.248900,194.2361
2021-05-07 12:03:43.264530,203.0171
2021-05-07 12:03:43.280150,210.0195
2021-05-07 12:03:43.295780,215.6467
2021-05-07 12:03:43.311410,220.823
2021-05-07 12:03:43.327030,226.4375
2021-05-07 12:03:43.342660,232.8217
2021-05-07 12:03:43.358280,239.3548
2021-05-07 12:03:43.373910,244.4488
2021-05-07 12:03:43.389530,246.0497
2021-05-07 12:03:43.405160,242.2222
2021-05-07 12:03:43.420790,231.5687
2021-05-07 12:03:43.436410,213.5206
2021-05-07 12:03:43.452040,188.366
2021-05-07 12:03:43.467660,157.1346
2021-05-07 12:03:43.483290,121.5328
2021-05-07 12:03:43.498910,83.71817
2021-05-07 12:03:43.514540,46.06587
2021-05-07 12:03:43.530170,10.8609
2021-05-07 12:03:43.545790,-20.09778
2021-05-07 12:03:43.561420,-45.74182
2021-05-07 12:03:43.577040,-65.85464
2021-05-07 12:03:43.592670,-80.8728
2021-05-07 12:03:43.608290,-91.68466
2021-05-07 12:03:43.623920,-99.15146
2021-05-07 12:03:43.639550,-103.854
2021-05-07 12:03:43.655170,-106.0359
2021-05-07 12:03:43.670800,-105.6572
2021-05-07 12:03:43.686420,-102.6845
2021-05-07 12:03:43.702050,-97.27167
2021-05-07 12:03:43.717670,-89.79181
2021-05-07 12:03:43.733300,-80.61853
2021-05-07 12:03:43.748930,-70.06116
2021-05-07 12:03:43.764550,-58.15637
2021-05-07 12:03:43.780180,-44.87405
2021-05-07 12:03:43.795800,-30.42389
2021-05-07 12:03:43.811430,-15.44525
2021-05-07 12:03:43.827060,-1.016663
2021-05-07 12:03:43.842680,11.63348
2021-05-07 12:03:43.858310,21.60886
2021-05-07 12:03:43.873930,28.65274
2021-05-07 12:03:43.889560,33.10733
2021-05-07 12:03:43.905180,35.68878
2021-05-07 12:03:43.920810,36.93661
2021-05-07 12:03:43.936440,36.99103
2021-05-07 12:03:43.952060,35.45758
2021-05-07 12:03:43.967690,31.70721
2021-05-07 12:03:43.983310,25.23468
2021-05-07 12:03:43.998940,16.02423
2021-05-07 12:03:44.014560,4.572632
2021-05-07 12:03:44.030190,-8.335938
2021-05-07 12:03:44.045820,-21.914
2021-05-07 12:03:44.061440,-35.6723
2021-05-07 12:03:44.077070,-49.26276
2021-05-07 12:03:44.092690,-62.27777
2021-05-07 12:03:44.108320,-74.00598
2021-05-07 12:03:44.123940,-83.35486
2021-05-07 12:03:44.139570,-89.13257
2021-05-07 12:03:44.155200,-90.59473
2021-05-07 12:03:44.170820,-87.74188
2021-05-07 12:03:44.186450,-81.32764
2021-05-07 12:03:44.202070,-72.51208
2021-05-07 12:03:44.217700,-62.37994
2021-05-07 12:03:44.233320,-51.6712
2021-05-07 12:03:44.248950,-40.82904
2021-05-07 12:03:44.264580,-30.21283
2021-05-07 12:03:44.280200,-20.3692
2021-05-07 12:03:44.295830,-12.0766
2021-05-07 12:03:44.311450,-6.093872
2021-05-07 12:03:44.327080,-2.781494
2021-05-07 12:03:44.342700,-1.990479
2021-05-07 12:03:44.358330,-3.076172
2021-05-07 12:03:44.373960,-5.295166
2021-05-07 12:03:44.389580,-8.059692
2021-05-07 12:03:44.405210,-10.98517
2021-05-07 12:03:44.420830,-13.91583
2021-05-07 12:03:44.436460,-16.71466
2021-05-07 12:03:44.452080,-19.20703
2021-05-07 12:03:44.467710,-21.19354
2021-05-07 12:03:44.483340,-22.54724
2021-05-07 12:03:44.498960,-23.31372
2021-05-07 12:03:44.514590,-23.67902
2021-05-07 12:03:44.530210,-24.02844
2021-05-07 12:03:44.545840,-24.80481
2021-05-07 12:03:44.561460,-26.50531
2021-05-07 12:03:44.577090,-29.45325
2021-05-07 12:03:44.592720,-33.50262
2021-05-07 12:03:44.608340,-37.8717
2021-05-07 12:03:44.623970,-41.20319
2021-05-07 12:03:44.639590,-41.95416
2021-05-07 12:03:44.655220,-39.07538
2021-05-07 12:03:44.670840,-32.49249
2021-05-07 12:03:44.686470,-23.24585
2021-05-07 12:03:44.702100,-13.03015
2021-05-07 12:03:44.717720,-3.522522
2021-05-07 12:03:44.733350,4.210449
2021-05-07 12:03:44.748970,9.851318
2021-05-07 12:03:44.764600,13.55011
2021-05-07 12:03:44.780220,15.59442
2021-05-07 12:03:44.795850,16.1217
2021-05-07 12:03:44.811480,15.21167
2021-05-07 12:03:44.827100,13.13629
2021-05-07 12:03:44.842730,10.47418
2021-05-07 12:03:44.858350,8.022949
2021-05-07 12:03:44.873980,6.391113
2021-05-07 12:03:44.889600,5.717896
2021-05-07 12:03:44.905230,5.59552
2021-05-07 12:03:44.920860,5.399963
2021-05-07 12:03:44.936480,4.645142
2021-05-07 12:03:44.952110,3.246277
2021-05-07 12:03:44.967730,1.579346
2021-05-07 12:03:44.983360,0.1743774
2021-05-07 12:03:44.998980,-0.5647583
2021-05-07 12:03:45.014610,-0.6069946
2021-05-07 12:03:45.030240,-0.3358765
2021-05-07 12:03:45.045860,-0.4094238
2021-05-07 12:03:45.061490,-1.503906
2021-05-07 12:03:45.077110,-4.132813
2021-05-07 12:03:45.092740,-8.552063
2021-05-07 12:03:45.108360,-14.61951
2021-05-07 12:03:45.123990,-21.83783
2021-05-07 12:03:45.139620,-29.42767
2021-05-07 12:03:45.155240,-36.55652
2021-05-07 12:03:45.170870,-42.46814
2021-05-07 12:03:45.186490,-46.74799
2021-05-07 12:03:45.202120,-49.28174
2021-05-07 12:03:45.217740,-50.13074
2021-05-07 12:03:45.233370,-49.44562
2021-05-07 12:03:45.249000,-47.30951
2021-05-07 12:03:45.264620,-43.82825
2021-05-07 12:03:45.280250,-39.2464
2021-05-07 12:03:45.295870,-33.9823
2021-05-07 12:03:45.311500,-28.56659
2021-05-07 12:03:45.327120,-23.55408
2021-05-07 12:03:45.342750,-19.47272
2021-05-07 12:03:45.358380,-16.87109
2021-05-07 12:03:45.374000,-16.31293
2021-05-07 12:03:45.389630,-18.22772
2021-05-07 12:03:45.405250,-22.59918
2021-05-07 12:03:45.420880,-28.71912
2021-05-07 12:03:45.436500,-35.12463
2021-05-07 12:03:45.452130,-40.04761
2021-05-07 12:03:45.467760,-42.15308
2021-05-07 12:03:45.483380,-41.12909
2021-05-07 12:03:45.499010,-37.81183
2021-05-07 12:03:45.514630,-33.75659
2021-05-07 12:03:45.530260,-30.50104
2021-05-07 12:03:45.545880,-28.99408
2021-05-07 12:03:45.561510,-29.50488
2021-05-07 12:03:45.577140,-31.82147
2021-05-07 12:03:45.592760,-35.63403
2021-05-07 12:03:45.608390,-40.68597
2021-05-07 12:03:45.624010,-46.66498
2021-05-07 12:03:45.639640,-53.02356
2021-05-07 12:03:45.655260,-59.1015
2021-05-07 12:03:45.670890,-64.31622
2021-05-07 12:03:45.686520,-68.37122
2021-05-07 12:03:45.702140,-71.31573
2021-05-07 12:03:45.717770,-73.17285
2021-05-07 12:03:45.733390,-73.63519
2021-05-07 12:03:45.749020,-71.96014
2021-05-07 12:03:45.764640,-67.34229
2021-05-07 12:03:45.780270,-59.4693
2021-05-07 12:03:45.795900,-48.93652
2021-05-07 12:03:45.811520,-37.10889
2021-05-07 12:03:45.827150,-25.60956
2021-05-07 12:03:45.842770,-15.7323
2021-05-07 12:03:45.858400,-8.116699
2021-05-07 12:03:45.874020,-2.821716
2021-05-07 12:03:45.889650,0.2659302
2021-05-07 12:03:45.905280,1.118164
2021-05-07 12:03:45.920900,-0.5783081
2021-05-07 12:03:45.936530,-5.190979
2021-05-07 12:03:45.952150,-12.64484
2021-05-07 12:03:45.967780,-22.20038
2021-05-07 12:03:45.983400,-32.54504
2021-05-07 12:03:45.999030,-42.12781
2021-05-07 12:03:46.014660,-49.77069
2021-05-07 12:03:46.030280,-55.12646
2021-05-07 12:03:46.045910,-58.72919
2021-05-07 12:03:46.061530,-61.62372
2021-05-07 12:03:46.077160,-64.70001
2021-05-07 12:03:46.092790,-67.85144
2021-05-07 12:03:46.108410,-69.90967
2021-05-07 12:03:46.124040,-69.04047
2021-05-07 12:03:46.139660,-63.72247
2021-05-07 12:03:46.155290,-53.45453
2021-05-07 12:03:46.170910,-39.01563
2021-05-07 12:03:46.186540,-22.01642
2021-05-07 12:03:46.202170,-4.26178
2021-05-07 12:03:46.217790,12.68805
2021-05-07 12:03:46.233420,27.59369
2021-05-07 12:03:46.249040,39.54303
2021-05-07 12:03:46.264670,48.04675
2021-05-07 12:03:46.280290,53.35406
2021-05-07 12:03:46.295920,56.67242
2021-05-07 12:03:46.311550,59.85992
2021-05-07 12:03:46.327170,64.65448
2021-05-07 12:03:46.342800,71.71552
2021-05-07 12:03:46.358420,80.10962
2021-05-07 12:03:46.374050,87.68817
2021-05-07 12:03:46.389670,92.18872
2021-05-07 12:03:46.405300,92.41907
2021-05-07 12:03:46.420930,88.76624
2021-05-07 12:03:46.436550,82.81213
2021-05-07 12:03:46.452180,76.44397
2021-05-07 12:03:46.467800,71.04962
2021-05-07 12:03:46.483430,67.14435
2021-05-07 12:03:46.499050,64.60193
2021-05-07 12:03:46.514680,62.94611
2021-05-07 12:03:46.530310,61.73718
2021-05-07 12:03:46.545930,60.60858
2021-05-07 12:03:46.561560,59.37177
2021-05-07 12:03:46.577180,57.86987
2021-05-07 12:03:46.592810,56.04315
2021-05-07 12:03:46.608430,53.91211
2021-05-07 12:03:46.624060,51.6225
2021-05-07 12:03:46.639690,49.39514
2021-05-07 12:03:46.655310,47.47705
2021-05-07 12:03:46.670940,46.10406
2021-05-07 12:03:46.686560,45.2937
2021-05-07 12:03:46.702190,44.90717
2021-05-07 12:03:46.717810,44.55438
2021-05-07 12:03:46.733440,43.61865
2021-05-07 12:03:46.749070,41.43872
2021-05-07 12:03:46.764690,37.5437
2021-05-07 12:03:46.780320,31.91254
2021-05-07 12:03:46.795940,25.18195
2021-05-07 12:03:46.811570,18.62732
2021-05-07 12:03:46.827190,13.85522
2021-05-07 12:03:46.842820,12.31079
2021-05-07 12:03:46.858450,14.80267
2021-05-07 12:03:46.874070,21.07123
2021-05-07 12:03:46.889700,29.81561
2021-05-07 12:03:46.905320,39.09387
2021-05-07 12:03:46.920950,46.98157
2021-05-07 12:03:46.936570,52.23322
2021-05-07 12:03:46.952200,54.66156
2021-05-07 12:03:46.967830,54.91284
2021-05-07 12:03:46.983450,53.94128
2021-05-07 12:03:46.999080,52.50769
2021-05-07 12:03:47.014700,50.87274
2021-05-07 12:03:47.030330,48.90796
2021-05-07 12:03:47.045950,46.35388
2021-05-07 12:03:47.061580,43.1897
2021-05-07 12:03:47.077210,39.66235
2021-05-07 12:03:47.092830,36.28003
2021-05-07 12:03:47.108460,33.45416
2021-05-07 12:03:47.124080,31.26599
2021-05-07 12:03:47.139710,29.45764
2021-05-07 12:03:47.155330,27.5257
2021-05-07 12:03:47.170960,25.14502
2021-05-07 12:03:47.186590,22.20331
2021-05-07 12:03:47.202210,18.89038
2021-05-07 12:03:47.217840,15.47528
2021-05-07 12:03:47.233460,12.14575
2021-05-07 12:03:47.249090,8.846924
2021-05-07 12:03:47.264710,5.338257
2021-05-07 12:03:47.280340,1.291992
2021-05-07 12:03:47.295970,-3.541321
2021-05-07 12:03:47.311590,-9.198547
2021-05-07 12:03:47.327220,-15.54468
2021-05-07 12:03:47.342840,-22.29523
2021-05-07 12:03:47.358470,-29.07874
2021-05-07 12:03:47.374090,-35.57172
2021-05-07 12:03:47.389720,-41.46106
2021-05-07 12:03:47.405350,-46.49158
2021-05-07 12:03:47.420970,-50.44635
2021-05-07 12:03:47.436600,-53.15881
2021-05-07 12:03:47.452220,-54.52399
2021-05-07 12:03:47.467850,-54.53326
2021-05-07 12:03:47.483470,-53.21979
2021-05-07 12:03:47.499100,-50.6449
2021-05-07 12:03:47.514730,-46.90173
2021-05-07 12:03:47.530350,-42.06757
2021-05-07 12:03:47.545980,-36.25104
2021-05-07 12:03:47.561600,-29.61035
2021-05-07 12:03:47.577230,-22.45697
2021-05-07 12:03:47.592850,-15.17462
2021-05-07 12:03:47.608480,-8.287109
2021-05-07 12:03:47.624110,-2.297302
2021-05-07 12:03:47.639730,2.428406
2021-05-07 12:03:47.655360,5.72229
2021-05-07 12:03:47.670980,7.703613
2021-05-07 12:03:47.686610,8.701904
2021-05-07 12:03:47.702230,9.168457
2021-05-07 12:03:47.717860,9.474304
2021-05-07 12:03:47.733490,9.885193
2021-05-07 12:03:47.749110,10.46088
2021-05-07 12:03:47.764740,11.13617
2021-05-07 12:03:47.780360,11.77106
2021-05-07 12:03:47.795990,12.20361
2021-05-07 12:03:47.811610,12.31921
2021-05-07 12:03:47.827240,12.05701
2021-05-07 12:03:47.842870,11.33185
2021-05-07 12:03:47.858490,10.05389
2021-05-07 12:03:47.874120,8.102417
2021-05-07 12:03:47.889740,5.418396
2021-05-07 12:03:47.905370,2.047607
2021-05-07 12:03:47.920990,-1.83429
2021-05-07 12:03:47.936620,-5.996155
2021-05-07 12:03:47.952250,-10.11621
2021-05-07 12:03:47.967870,-13.78668
2021-05-07 12:03:47.983500,-16.55597
2021-05-07 12:03:47.999120,-17.83344
2021-05-07 12:03:48.014750,-17.0741
2021-05-07 12:03:48.030370,-13.90997
2021-05-07 12:03:48.046000,-8.360168
2021-05-07 12:03:48.061630,-0.9283447
2021-05-07 12:03:48.077250,7.453186
2021-05-07 12:03:48.092880,15.66705
2021-05-07 12:03:48.108500,22.77881
2021-05-07 12:03:48.124130,28.17871
2021-05-07 12:03:48.139750,31.7265
2021-05-07 12:03:48.155380,33.56073
2021-05-07 12:03:48.171010,33.85327
2021-05-07 12:03:48.186630,32.7381
2021-05-07 12:03:48.202260,30.32452
2021-05-07 12:03:48.217880,26.7912
2021-05-07 12:03:48.233510,22.51648
2021-05-07 12:03:48.249130,18.08264
2021-05-07 12:03:48.264760,14.09247
2021-05-07 12:03:48.280390,11.02222
2021-05-07 12:03:48.296010,9.082458
2021-05-07 12:03:48.311640,8.124756
2021-05-07 12:03:48.327260,7.802917
2021-05-07 12:03:48.342890,7.677979
2021-05-07 12:03:48.358520,7.383484
2021-05-07 12:03:48.374140,6.745361
2021-05-07 12:03:48.405390,4.534607
2021-05-07 12:03:48.421020,3.195923
2021-05-07 12:03:48.436640,1.768616
2021-05-07 12:03:48.452270,0.2063599
2021-05-07 12:03:48.467900,-1.614075
2021-05-07 12:03:48.483520,-3.841125
2021-05-07 12:03:48.499150,-6.513123
2021-05-07 12:03:48.514770,-9.472351
2021-05-07 12:03:48.530400,-12.34711
2021-05-07 12:03:48.546020,-14.72247
2021-05-07 12:03:48.561650,-16.23853
2021-05-07 12:03:48.577280,-16.72565
2021-05-07 12:03:48.592900,-16.26538
2021-05-07 12:03:48.608530,-15.13757
2021-05-07 12:03:48.624150,-13.77277
2021-05-07 12:03:48.639780,-12.66876
2021-05-07 12:03:48.655400,-12.21869
2021-05-07 12:03:48.671030,-12.65704
2021-05-07 12:03:48.686660,-14.00171
2021-05-07 12:03:48.702280,-16.02332
2021-05-07 12:03:48.717910,-18.3551
2021-05-07 12:03:48.733530,-20.63898
2021-05-07 12:03:48.749160,-22.62036
2021-05-07 12:03:48.764780,-24.2511
2021-05-07 12:03:48.780410,-25.73975
2021-05-07 12:03:48.796040,-27.31982
2021-05-07 12:03:48.811660,-29.13263
2021-05-07 12:03:48.827290,-31.10583
2021-05-07 12:03:48.842910,-32.94714
2021-05-07 12:03:48.858540,-34.3736
2021-05-07 12:03:48.874160,-35.26141
2021-05-07 12:03:48.889790,-35.68323
2021-05-07 12:03:48.905420,-35.88446
2021-05-07 12:03:48.921040,-36.12622
2021-05-07 12:03:48.936670,-36.6355
2021-05-07 12:03:48.952290,-37.5166
2021-05-07 12:03:48.967920,-38.7702
2021-05-07 12:03:48.983540,-40.3335
2021-05-07 12:03:48.999170,-42.22156
2021-05-07 12:03:49.014800,-44.54199
2021-05-07 12:03:49.030420,-47.46649
2021-05-07 12:03:49.046050,-51.18573
2021-05-07 12:03:49.061670,-55.76062
2021-05-07 12:03:49.077300,-61.11884
2021-05-07 12:03:49.092920,-66.99603
2021-05-07 12:03:49.108550,-73.07562
2021-05-07 12:03:49.124180,-79.10553
2021-05-07 12:03:49.139800,-85.0177
2021-05-07 12:03:49.155430,-90.81311
2021-05-07 12:03:49.171050,-96.3952
2021-05-07 12:03:49.186680,-101.2125
2021-05-07 12:03:49.202300,-104.3539
2021-05-07 12:03:49.217930,-104.8448
2021-05-07 12:03:49.233560,-102.2087
2021-05-07 12:03:49.249180,-96.76044
2021-05-07 12:03:49.264810,-89.35864
2021-05-07 12:03:49.280430,-80.78687
2021-05-07 12:03:49.296060,-71.38751
2021-05-07 12:03:49.311680,-61.11053
2021-05-07 12:03:49.327310,-50.0564
2021-05-07 12:03:49.342940,-39.05359
2021-05-07 12:03:49.358560,-29.6745
2021-05-07 12:03:49.374190,-23.4884
2021-05-07 12:03:49.389810,-21.01874
2021-05-07 12:03:49.405440,-21.12109
2021-05-07 12:03:49.421060,-21.3725
2021-05-07 12:03:49.436690,-19.51428
2021-05-07 12:03:49.452320,-14.85339
2021-05-07 12:03:49.467940,-8.778137
2021-05-07 12:03:49.483570,-3.997742
2021-05-07 12:03:49.499190,-2.880554
2021-05-07 12:03:49.514820,-5.925659
2021-05-07 12:03:49.530440,-11.41687
2021-05-07 12:03:49.546070,-16.43506
2021-05-07 12:03:49.561700,-18.33282
2021-05-07 12:03:49.577320,-16.01147
2021-05-07 12:03:49.592950,-10.0979
2021-05-07 12:03:49.608570,-2.277893
2021-05-07 12:03:49.624200,5.69696
2021-05-07 12:03:49.639820,12.51251
2021-05-07 12:03:49.655450,17.27972
2021-05-07 12:03:49.671080,19.02808
2021-05-07 12:03:49.686700,16.76111
2021-05-07 12:03:49.702330,10.06732
2021-05-07 12:03:49.717950,0.07928467
2021-05-07 12:03:49.733580,-10.18585
2021-05-07 12:03:49.749200,-16.67145
2021-05-07 12:03:49.764830,-16.19482
2021-05-07 12:03:49.780460,-8.1604
2021-05-07 12:03:49.796080,4.862671
2021-05-07 12:03:49.811710,18.20795
2021-05-07 12:03:49.827330,27.42932
2021-05-07 12:03:49.842960,30.37988
2021-05-07 12:03:49.858580,27.96844
2021-05-07 12:03:49.874210,23.2796
2021-05-07 12:03:49.889840,19.65472
2021-05-07 12:03:49.905460,18.98254
2021-05-07 12:03:49.921090,21.17212
2021-05-07 12:03:49.936710,24.69165
2021-05-07 12:03:49.952340,27.83978
2021-05-07 12:03:49.967960,29.62659
2021-05-07 12:03:49.983590,30.0531
2021-05-07 12:03:49.999220,29.71576
2021-05-07 12:03:50.014840,29.3208
2021-05-07 12:03:50.030470,29.54584
2021-05-07 12:03:50.046090,30.94879
2021-05-07 12:03:50.061720,34.08624
2021-05-07 12:03:50.077340,39.25824
2021-05-07 12:03:50.092970,46.12152
2021-05-07 12:03:50.108600,53.19946
2021-05-07 12:03:50.124220,58.02716
2021-05-07 12:03:50.139850,57.95813
2021-05-07 12:03:50.155470,51.34583
2021-05-07 12:03:50.171100,38.58234
2021-05-07 12:03:50.186720,22.14435
2021-05-07 12:03:50.202350,5.649902
2021-05-07 12:03:50.217980,-7.686157
2021-05-07 12:03:50.233600,-16.20123
2021-05-07 12:03:50.249230,-20.14288
2021-05-07 12:03:50.264850,-21.05383
2021-05-07 12:03:50.280480,-20.61627
2021-05-07 12:03:50.296100,-19.95584
2021-05-07 12:03:50.311730,-19.53506
2021-05-07 12:03:50.327360,-19.51373
2021-05-07 12:03:50.342980,-20.09344
2021-05-07 12:03:50.358610,-21.42813
2021-05-07 12:03:50.374230,-23.22012
2021-05-07 12:03:50.389860,-24.42325
2021-05-07 12:03:50.405480,-23.49295
2021-05-07 12:03:50.421110,-19.08945
2021-05-07 12:03:50.436740,-11.03305
2021-05-07 12:03:50.452360,-0.5917969
2021-05-07 12:03:50.467990,9.821014
2021-05-07 12:03:50.483610,17.57028
2021-05-07 12:03:50.499240,20.91449
2021-05-07 12:03:50.514860,19.51312
2021-05-07 12:03:50.530490,14.33517
2021-05-07 12:03:50.546120,7.053467
2021-05-07 12:03:50.561740,-0.8007507
2021-05-07 12:03:50.577370,-8.388947
2021-05-07 12:03:50.592990,-15.6524
2021-05-07 12:03:50.608620,-23.00082
2021-05-07 12:03:50.624240,-30.90842
2021-05-07 12:03:50.639870,-39.50177
2021-05-07 12:03:50.655500,-48.51816
2021-05-07 12:03:50.671120,-57.47052
2021-05-07 12:03:50.686750,-65.8201
2021-05-07 12:03:50.702370,-73.11002
2021-05-07 12:03:50.718000,-78.98633
2021-05-07 12:03:50.733620,-83.10544
2021-05-07 12:03:50.749250,-85.0358
2021-05-07 12:03:50.764880,-84.40326
2021-05-07 12:03:50.780500,-80.88348
2021-05-07 12:03:50.796130,-74.30945
2021-05-07 12:03:50.811750,-64.68051
2021-05-07 12:03:50.827380,-52.10931
2021-05-07 12:03:50.843000,-36.66058
2021-05-07 12:03:50.858630,-18.27585
2021-05-07 12:03:50.874260,3.195389
2021-05-07 12:03:50.889880,27.84972
2021-05-07 12:03:50.905510,55.32867
2021-05-07 12:03:50.921130,84.61391
2021-05-07 12:03:50.936760,113.9551
2021-05-07 12:03:50.952390,141.0724
2021-05-07 12:03:50.968010,163.6249
2021-05-07 12:03:50.983640,179.6303
2021-05-07 12:03:50.999260,187.8849
2021-05-07 12:03:51.014890,188.116
2021-05-07 12:03:51.030510,180.8484
2021-05-07 12:03:51.046140,167.1684
2021-05-07 12:03:51.061770,148.5004
2021-05-07 12:03:51.077390,126.4784
2021-05-07 12:03:51.093020,102.8642
2021-05-07 12:03:51.108640,79.4474
2021-05-07 12:03:51.124270,57.7675
2021-05-07 12:03:51.139890,38.85555
2021-05-07 12:03:51.155520,23.02072
2021-05-07 12:03:51.171150,9.922462
2021-05-07 12:03:51.186770,-1.201607
2021-05-07 12:03:51.202400,-11.01443
2021-05-07 12:03:51.218020,-19.76405
2021-05-07 12:03:51.233650,-27.17267
2021-05-07 12:03:51.249270,-32.63586
2021-05-07 12:03:51.264900,-35.62697
2021-05-07 12:03:51.280530,-36.15308
2021-05-07 12:03:51.296150,-34.87392
2021-05-07 12:03:51.311780,-32.8157
2021-05-07 12:03:51.327400,-30.92283
2021-05-07 12:03:51.343030,-29.38641
2021-05-07 12:03:51.358650,-27.44336
2021-05-07 12:03:51.374280,-23.67302
2021-05-07 12:03:51.389910,-16.57022
2021-05-07 12:03:51.405530,-5.41798
2021-05-07 12:03:51.421160,9.115463
2021-05-07 12:03:51.436780,25.06905
2021-05-07 12:03:51.452410,39.67542
2021-05-07 12:03:51.468030,50.23142
2021-05-07 12:03:51.483660,54.85916
2021-05-07 12:03:51.499290,52.86716
2021-05-07 12:03:51.514910,44.71441
2021-05-07 12:03:51.530540,31.76164
2021-05-07 12:03:51.546160,15.91118
