Datetime,value
BVP
2021-03-20 18:05:20.998600,8.56546
2021-03-20 18:05:21.014230,9.064972
2021-03-20 18:05:21.029850,9.464355
2021-03-20 18:05:21.045480,9.765015
2021-03-20 18:05:21.061100,9.904236
2021-03-20 18:05:21.076730,9.853607
2021-03-20 18:05:21.092350,9.607391
2021-03-20 18:05:21.107980,9.190674
2021-03-20 18:05:21.123610,8.638885
2021-03-20 18:05:21.139230,7.961761
2021-03-20 18:05:21.154860,7.196533
2021-03-20 18:05:21.170480,6.40155
2021-03-20 18:05:21.186110,5.700928
2021-03-20 18:05:21.201740,5.203064
2021-03-20 18:05:21.217360,4.997589
2021-03-20 18:05:21.232990,5.108063
2021-03-20 18:05:21.248610,5.471832
2021-03-20 18:05:21.264240,5.983734
2021-03-20 18:05:21.279860,6.483368
2021-03-20 18:05:21.295490,6.852356
2021-03-20 18:05:21.311120,6.986816
2021-03-20 18:05:21.326740,6.847931
2021-03-20 18:05:21.342370,6.389557
2021-03-20 18:05:21.357990,5.607574
2021-03-20 18:05:21.373620,4.5271
2021-03-20 18:05:21.389240,3.230377
2021-03-20 18:05:21.404870,1.854584
2021-03-20 18:05:21.420500,0.5688782
2021-03-20 18:05:21.436120,-0.4736633
2021-03-20 18:05:21.451750,-1.205933
2021-03-20 18:05:21.467370,-1.644379
2021-03-20 18:05:21.483000,-1.891174
2021-03-20 18:05:21.498620,-2.060944
2021-03-20 18:05:21.514250,-2.240204
2021-03-20 18:05:21.529880,-2.470398
2021-03-20 18:05:21.545500,-2.763489
2021-03-20 18:05:21.561130,-3.160919
2021-03-20 18:05:21.576750,-3.709717
2021-03-20 18:05:21.592380,-4.491302
2021-03-20 18:05:21.608000,-5.518677
2021-03-20 18:05:21.623630,-6.718323
2021-03-20 18:05:21.639260,-7.906006
2021-03-20 18:05:21.654880,-8.824524
2021-03-20 18:05:21.670510,-9.247711
2021-03-20 18:05:21.686130,-8.991577
2021-03-20 18:05:21.701760,-8.033325
2021-03-20 18:05:21.717380,-6.448181
2021-03-20 18:05:21.733010,-4.422577
2021-03-20 18:05:21.748640,-2.170776
2021-03-20 18:05:21.764260,0.115509
2021-03-20 18:05:21.779890,2.257813
2021-03-20 18:05:21.795510,4.156616
2021-03-20 18:05:21.811140,5.720245
2021-03-20 18:05:21.826760,6.924591
2021-03-20 18:05:21.842390,7.755035
2021-03-20 18:05:21.858020,8.248901
2021-03-20 18:05:21.873640,8.448914
2021-03-20 18:05:21.889270,8.411011
2021-03-20 18:05:21.904890,8.153503
2021-03-20 18:05:21.920520,7.64212
2021-03-20 18:05:21.936140,6.850739
2021-03-20 18:05:21.951770,5.761108
2021-03-20 18:05:21.967400,4.454346
2021-03-20 18:05:21.983020,3.10791
2021-03-20 18:05:21.998650,1.963562
2021-03-20 18:05:22.014270,1.208221
2021-03-20 18:05:22.029900,0.9385986
2021-03-20 18:05:22.045520,1.103882
2021-03-20 18:05:22.061150,1.51413
2021-03-20 18:05:22.076780,1.9552
2021-03-20 18:05:22.092400,2.240204
2021-03-20 18:05:22.108030,2.26709
2021-03-20 18:05:22.123650,2.029816
2021-03-20 18:05:22.139280,1.585388
2021-03-20 18:05:22.154900,1.022644
2021-03-20 18:05:22.170530,0.4475403
2021-03-20 18:05:22.201780,-0.2470093
2021-03-20 18:05:22.217410,-0.1798706
2021-03-20 18:05:22.233030,0.1671448
2021-03-20 18:05:22.248660,0.6680603
2021-03-20 18:05:22.264280,1.083649
2021-03-20 18:05:22.279910,1.124512
2021-03-20 18:05:22.295540,0.5731201
2021-03-20 18:05:22.311160,-0.6607666
2021-03-20 18:05:22.326790,-2.480988
2021-03-20 18:05:22.342410,-4.618347
2021-03-20 18:05:22.358040,-6.7005
2021-03-20 18:05:22.373660,-8.380432
2021-03-20 18:05:22.389290,-9.439606
2021-03-20 18:05:22.404920,-9.860962
2021-03-20 18:05:22.420540,-9.842682
2021-03-20 18:05:22.436170,-9.679047
2021-03-20 18:05:22.451790,-9.680756
2021-03-20 18:05:22.467420,-10.00531
2021-03-20 18:05:22.483040,-10.59952
2021-03-20 18:05:22.498670,-11.19077
2021-03-20 18:05:22.514300,-11.41873
2021-03-20 18:05:22.529920,-10.97144
2021-03-20 18:05:22.545550,-9.705444
2021-03-20 18:05:22.561170,-7.723175
2021-03-20 18:05:22.576800,-5.327698
2021-03-20 18:05:22.592420,-2.906799
2021-03-20 18:05:22.608050,-0.7849426
2021-03-20 18:05:22.623680,0.8852539
2021-03-20 18:05:22.639300,2.149017
2021-03-20 18:05:22.654930,3.174042
2021-03-20 18:05:22.670550,4.127411
2021-03-20 18:05:22.686180,5.091064
2021-03-20 18:05:22.701800,6.006317
2021-03-20 18:05:22.717430,6.741608
2021-03-20 18:05:22.733060,7.160004
2021-03-20 18:05:22.748680,7.238251
2021-03-20 18:05:22.764310,7.052094
2021-03-20 18:05:22.779930,6.738098
2021-03-20 18:05:22.795560,6.419159
2021-03-20 18:05:22.811180,6.156982
2021-03-20 18:05:22.826810,5.965759
2021-03-20 18:05:22.842440,5.848053
2021-03-20 18:05:22.858060,5.821075
2021-03-20 18:05:22.873690,5.938324
2021-03-20 18:05:22.889310,6.21405
2021-03-20 18:05:22.904940,6.612213
2021-03-20 18:05:22.920560,6.988342
2021-03-20 18:05:22.936190,7.186768
2021-03-20 18:05:22.951820,7.049225
2021-03-20 18:05:22.967440,6.528229
2021-03-20 18:05:22.983070,5.682007
2021-03-20 18:05:22.998690,4.637756
2021-03-20 18:05:23.014320,3.560272
2021-03-20 18:05:23.029940,2.563293
2021-03-20 18:05:23.045570,1.702515
2021-03-20 18:05:23.061200,0.973175
2021-03-20 18:05:23.076820,0.3764648
2021-03-20 18:05:23.092450,-0.07528687
2021-03-20 18:05:23.108070,-0.3335876
2021-03-20 18:05:23.123700,-0.3660889
2021-03-20 18:05:23.139320,-0.2129517
2021-03-20 18:05:23.154950,0.006256104
2021-03-20 18:05:23.170580,0.07815552
2021-03-20 18:05:23.186200,-0.188324
2021-03-20 18:05:23.201830,-0.9091797
2021-03-20 18:05:23.217450,-2.036896
2021-03-20 18:05:23.248700,-4.740875
2021-03-20 18:05:23.264330,-5.811615
2021-03-20 18:05:23.279960,-6.4328
2021-03-20 18:05:23.295580,-6.484406
2021-03-20 18:05:23.311210,-5.944855
2021-03-20 18:05:23.326830,-4.843018
2021-03-20 18:05:23.342460,-3.27356
2021-03-20 18:05:23.358080,-1.393616
2021-03-20 18:05:23.373710,0.6010132
2021-03-20 18:05:23.389340,2.51236
2021-03-20 18:05:23.404960,4.179108
2021-03-20 18:05:23.420590,5.487061
2021-03-20 18:05:23.436210,6.418793
2021-03-20 18:05:23.451840,6.969696
2021-03-20 18:05:23.467460,7.163727
2021-03-20 18:05:23.483090,7.040436
2021-03-20 18:05:23.498720,6.645782
2021-03-20 18:05:23.514340,6.041199
2021-03-20 18:05:23.529970,5.326843
2021-03-20 18:05:23.545590,4.593201
2021-03-20 18:05:23.561220,3.893707
2021-03-20 18:05:23.576840,3.252716
2021-03-20 18:05:23.592470,2.654236
2021-03-20 18:05:23.608100,2.105591
2021-03-20 18:05:23.623720,1.640045
2021-03-20 18:05:23.639350,1.319336
2021-03-20 18:05:23.654970,1.203674
2021-03-20 18:05:23.670600,1.31958
2021-03-20 18:05:23.686220,1.608673
2021-03-20 18:05:23.701850,1.968964
2021-03-20 18:05:23.717480,2.303314
2021-03-20 18:05:23.733100,2.546417
2021-03-20 18:05:23.748730,2.682129
2021-03-20 18:05:23.764350,2.719147
2021-03-20 18:05:23.779980,2.632141
2021-03-20 18:05:23.795600,2.376892
2021-03-20 18:05:23.811230,1.908905
2021-03-20 18:05:23.826860,1.219788
2021-03-20 18:05:23.842480,0.3787537
2021-03-20 18:05:23.858110,-0.4900208
2021-03-20 18:05:23.873730,-1.279572
2021-03-20 18:05:23.889360,-1.948303
2021-03-20 18:05:23.904990,-2.562805
2021-03-20 18:05:23.920610,-3.282822
2021-03-20 18:05:23.936240,-4.238251
2021-03-20 18:05:23.951860,-5.484955
2021-03-20 18:05:23.967490,-6.936798
2021-03-20 18:05:23.983110,-8.358749
2021-03-20 18:05:23.998740,-9.467377
2021-03-20 18:05:24.014370,-10.01324
2021-03-20 18:05:24.029990,-9.836456
2021-03-20 18:05:24.045620,-8.93634
2021-03-20 18:05:24.061240,-7.438797
2021-03-20 18:05:24.076870,-5.541077
2021-03-20 18:05:24.092490,-3.456848
2021-03-20 18:05:24.108120,-1.366379
2021-03-20 18:05:24.123750,0.590271
2021-03-20 18:05:24.139370,2.3237
2021-03-20 18:05:24.155000,3.769241
2021-03-20 18:05:24.170620,4.914276
2021-03-20 18:05:24.186250,5.74678
2021-03-20 18:05:24.201870,6.267593
2021-03-20 18:05:24.217500,6.458359
2021-03-20 18:05:24.233130,6.309372
2021-03-20 18:05:24.248750,5.817444
2021-03-20 18:05:24.264380,5.042877
2021-03-20 18:05:24.280000,4.092896
2021-03-20 18:05:24.295630,3.100601
2021-03-20 18:05:24.311250,2.218399
2021-03-20 18:05:24.326880,1.517059
2021-03-20 18:05:24.342510,1.028259
2021-03-20 18:05:24.358130,0.7217407
2021-03-20 18:05:24.373760,0.5518799
2021-03-20 18:05:24.389380,0.4850006
2021-03-20 18:05:24.405010,0.5015259
2021-03-20 18:05:24.420630,0.5939178
2021-03-20 18:05:24.451890,0.8735352
2021-03-20 18:05:24.467510,0.9263916
2021-03-20 18:05:24.483140,0.8091278
2021-03-20 18:05:24.498760,0.4416656
2021-03-20 18:05:24.514390,-0.2091827
2021-03-20 18:05:24.530010,-1.132202
2021-03-20 18:05:24.545640,-2.257874
2021-03-20 18:05:24.561270,-3.458084
2021-03-20 18:05:24.576890,-4.595627
2021-03-20 18:05:24.592520,-5.528931
2021-03-20 18:05:24.608140,-6.182724
2021-03-20 18:05:24.623770,-6.585709
2021-03-20 18:05:24.639390,-6.860626
2021-03-20 18:05:24.655020,-7.182632
2021-03-20 18:05:24.670650,-7.701263
2021-03-20 18:05:24.686270,-8.477142
2021-03-20 18:05:24.701900,-9.409683
2021-03-20 18:05:24.717520,-10.25777
2021-03-20 18:05:24.733150,-10.69048
2021-03-20 18:05:24.748770,-10.43184
2021-03-20 18:05:24.764400,-9.355469
2021-03-20 18:05:24.780030,-7.571411
2021-03-20 18:05:24.795650,-5.372833
2021-03-20 18:05:24.811280,-3.106232
2021-03-20 18:05:24.826900,-1.046478
2021-03-20 18:05:24.842530,0.6992188
2021-03-20 18:05:24.858150,2.164551
2021-03-20 18:05:24.873780,3.441116
2021-03-20 18:05:24.889410,4.575851
2021-03-20 18:05:24.905030,5.51683
2021-03-20 18:05:24.920660,6.160751
2021-03-20 18:05:24.936280,6.430069
2021-03-20 18:05:24.951910,6.326477
2021-03-20 18:05:24.967530,5.968475
2021-03-20 18:05:24.983160,5.518814
2021-03-20 18:05:24.998790,5.10083
2021-03-20 18:05:25.014410,4.76088
2021-03-20 18:05:25.030040,4.482971
2021-03-20 18:05:25.045660,4.201874
2021-03-20 18:05:25.061290,3.897903
2021-03-20 18:05:25.076910,3.58078
2021-03-20 18:05:25.092540,3.283188
2021-03-20 18:05:25.108170,3.051437
2021-03-20 18:05:25.123790,2.887115
2021-03-20 18:05:25.139420,2.76561
2021-03-20 18:05:25.155040,2.616318
2021-03-20 18:05:25.170670,2.393326
2021-03-20 18:05:25.186290,2.065781
2021-03-20 18:05:25.201920,1.658569
2021-03-20 18:05:25.217550,1.251846
2021-03-20 18:05:25.233170,0.962265
2021-03-20 18:05:25.248800,0.8628693
2021-03-20 18:05:25.264420,0.9828644
2021-03-20 18:05:25.280050,1.239548
2021-03-20 18:05:25.295670,1.486084
2021-03-20 18:05:25.311300,1.545532
2021-03-20 18:05:25.326930,1.287262
2021-03-20 18:05:25.342550,0.6398468
2021-03-20 18:05:25.358180,-0.3907471
2021-03-20 18:05:25.373800,-1.739212
2021-03-20 18:05:25.389430,-3.348862
2021-03-20 18:05:25.405050,-5.16803
2021-03-20 18:05:25.420680,-7.164948
2021-03-20 18:05:25.436310,-9.255203
2021-03-20 18:05:25.451930,-11.29901
2021-03-20 18:05:25.467560,-13.06073
2021-03-20 18:05:25.483180,-14.26399
2021-03-20 18:05:25.498810,-14.66873
2021-03-20 18:05:25.514430,-14.1396
2021-03-20 18:05:25.545690,-10.57159
2021-03-20 18:05:25.561310,-8.00531
2021-03-20 18:05:25.576940,-5.279526
2021-03-20 18:05:25.592560,-2.631989
2021-03-20 18:05:25.608190,-0.2077789
2021-03-20 18:05:25.623810,1.913727
2021-03-20 18:05:25.639440,3.678726
2021-03-20 18:05:25.655070,5.067932
2021-03-20 18:05:25.670690,6.077316
2021-03-20 18:05:25.686320,6.725266
2021-03-20 18:05:25.701940,7.053207
2021-03-20 18:05:25.717570,7.108887
2021-03-20 18:05:25.733190,6.967056
2021-03-20 18:05:25.748820,6.68605
2021-03-20 18:05:25.764450,6.353699
2021-03-20 18:05:25.780070,6.080841
2021-03-20 18:05:25.795700,5.98851
2021-03-20 18:05:25.811320,6.166336
2021-03-20 18:05:25.826950,6.654129
2021-03-20 18:05:25.842570,7.412476
2021-03-20 18:05:25.858200,8.32962
2021-03-20 18:05:25.873830,9.287079
2021-03-20 18:05:25.889450,10.17122
2021-03-20 18:05:25.905080,10.92131
2021-03-20 18:05:25.920700,11.47595
2021-03-20 18:05:25.936330,11.78154
2021-03-20 18:05:25.951950,11.75266
2021-03-20 18:05:25.967580,11.30878
2021-03-20 18:05:25.983210,10.42027
2021-03-20 18:05:25.998830,9.12561
2021-03-20 18:05:26.014460,7.536942
2021-03-20 18:05:26.030080,5.814285
2021-03-20 18:05:26.045710,4.110626
2021-03-20 18:05:26.061330,2.53862
2021-03-20 18:05:26.076960,1.166245
2021-03-20 18:05:26.092590,-0.005096436
2021-03-20 18:05:26.108210,-0.9902954
2021-03-20 18:05:26.123840,-1.807831
2021-03-20 18:05:26.139460,-2.490921
2021-03-20 18:05:26.155090,-3.06839
2021-03-20 18:05:26.170720,-3.551514
2021-03-20 18:05:26.186340,-3.951187
2021-03-20 18:05:26.201970,-4.277237
2021-03-20 18:05:26.217590,-4.542755
2021-03-20 18:05:26.233220,-4.784485
2021-03-20 18:05:26.248840,-5.049713
2021-03-20 18:05:26.264470,-5.354614
2021-03-20 18:05:26.280100,-5.659149
2021-03-20 18:05:26.295720,-5.842087
2021-03-20 18:05:26.311350,-5.731766
2021-03-20 18:05:26.326970,-5.168701
2021-03-20 18:05:26.342600,-4.085968
2021-03-20 18:05:26.358220,-2.513809
2021-03-20 18:05:26.373850,-0.633728
2021-03-20 18:05:26.389480,1.288513
2021-03-20 18:05:26.405100,2.985199
2021-03-20 18:05:26.420730,4.257843
2021-03-20 18:05:26.436350,5.06102
2021-03-20 18:05:26.451980,5.473022
2021-03-20 18:05:26.467600,5.657379
2021-03-20 18:05:26.483230,5.787766
2021-03-20 18:05:26.498860,5.983063
2021-03-20 18:05:26.514480,6.252274
2021-03-20 18:05:26.530110,6.516525
2021-03-20 18:05:26.545730,6.639603
2021-03-20 18:05:26.561360,6.538986
2021-03-20 18:05:26.576980,6.219284
2021-03-20 18:05:26.592610,5.793259
2021-03-20 18:05:26.608240,5.390594
2021-03-20 18:05:26.623860,5.108459
2021-03-20 18:05:26.639490,4.952713
2021-03-20 18:05:26.655110,4.818359
2021-03-20 18:05:26.686360,4.261032
2021-03-20 18:05:26.701990,3.822525
2021-03-20 18:05:26.717620,3.388748
2021-03-20 18:05:26.733240,3.052261
2021-03-20 18:05:26.748870,2.814301
2021-03-20 18:05:26.764490,2.603409
2021-03-20 18:05:26.780120,2.297028
2021-03-20 18:05:26.795740,1.816055
2021-03-20 18:05:26.811370,1.162979
2021-03-20 18:05:26.827000,0.4463959
2021-03-20 18:05:26.842620,-0.2249908
2021-03-20 18:05:26.858250,-0.7669678
2021-03-20 18:05:26.873870,-1.162369
2021-03-20 18:05:26.889500,-1.453766
2021-03-20 18:05:26.905120,-1.714615
2021-03-20 18:05:26.920750,-2.023346
2021-03-20 18:05:26.936380,-2.412064
2021-03-20 18:05:26.952000,-2.881409
2021-03-20 18:05:26.967630,-3.382538
2021-03-20 18:05:26.983250,-3.884232
2021-03-20 18:05:26.998880,-4.378052
2021-03-20 18:05:27.014500,-4.867767
2021-03-20 18:05:27.030130,-5.375702
2021-03-20 18:05:27.045760,-5.922073
2021-03-20 18:05:27.061380,-6.509506
2021-03-20 18:05:27.077010,-7.126572
2021-03-20 18:05:27.092630,-7.759735
2021-03-20 18:05:27.108260,-8.423889
2021-03-20 18:05:27.123880,-9.164352
2021-03-20 18:05:27.139510,-10.01784
2021-03-20 18:05:27.155140,-10.97688
2021-03-20 18:05:27.170760,-11.92685
2021-03-20 18:05:27.186390,-12.67155
2021-03-20 18:05:27.202010,-12.98508
2021-03-20 18:05:27.217640,-12.70757
2021-03-20 18:05:27.233260,-11.79288
2021-03-20 18:05:27.248890,-10.35727
2021-03-20 18:05:27.264520,-8.607178
2021-03-20 18:05:27.280140,-6.792694
2021-03-20 18:05:27.295770,-5.115463
2021-03-20 18:05:27.311390,-3.700562
2021-03-20 18:05:27.327020,-2.550262
2021-03-20 18:05:27.342640,-1.581726
2021-03-20 18:05:27.358270,-0.6780853
2021-03-20 18:05:27.373900,0.2655792
2021-03-20 18:05:27.389520,1.269638
2021-03-20 18:05:27.405150,2.292419
2021-03-20 18:05:27.420770,3.206833
2021-03-20 18:05:27.436400,3.904236
2021-03-20 18:05:27.452020,4.311951
2021-03-20 18:05:27.467650,4.47258
2021-03-20 18:05:27.483280,4.499969
2021-03-20 18:05:27.498900,4.51619
2021-03-20 18:05:27.514530,4.615051
2021-03-20 18:05:27.530150,4.793121
2021-03-20 18:05:27.545780,4.99617
2021-03-20 18:05:27.561400,5.145462
2021-03-20 18:05:27.577030,5.224686
2021-03-20 18:05:27.592660,5.238083
2021-03-20 18:05:27.608280,5.236267
2021-03-20 18:05:27.623910,5.235382
2021-03-20 18:05:27.639530,5.194122
2021-03-20 18:05:27.655160,5.022354
2021-03-20 18:05:27.670780,4.597
2021-03-20 18:05:27.686410,3.85022
2021-03-20 18:05:27.702040,2.801407
2021-03-20 18:05:27.717660,1.601822
2021-03-20 18:05:27.733290,0.4595337
2021-03-20 18:05:27.748910,-0.3996429
2021-03-20 18:05:27.764540,-0.8322601
2021-03-20 18:05:27.780160,-0.8611145
2021-03-20 18:05:27.795790,-0.6437683
2021-03-20 18:05:27.811420,-0.4294434
2021-03-20 18:05:27.827040,-0.4567108
2021-03-20 18:05:27.842670,-0.8482056
2021-03-20 18:05:27.858290,-1.593796
2021-03-20 18:05:27.873920,-2.584549
2021-03-20 18:05:27.889540,-3.648102
2021-03-20 18:05:27.905170,-4.603622
2021-03-20 18:05:27.920800,-5.299973
2021-03-20 18:05:27.936420,-5.598618
2021-03-20 18:05:27.952050,-5.427551
2021-03-20 18:05:27.967670,-4.787781
2021-03-20 18:05:27.983300,-3.748001
2021-03-20 18:05:27.998920,-2.456177
2021-03-20 18:05:28.014550,-1.072266
2021-03-20 18:05:28.030180,0.2901611
2021-03-20 18:05:28.045800,1.581528
2021-03-20 18:05:28.061430,2.798447
2021-03-20 18:05:28.077050,3.9814
2021-03-20 18:05:28.092680,5.125595
2021-03-20 18:05:28.108300,6.183807
2021-03-20 18:05:28.123930,7.080505
2021-03-20 18:05:28.139560,7.718994
2021-03-20 18:05:28.155180,8.021011
2021-03-20 18:05:28.170810,7.956848
2021-03-20 18:05:28.186430,7.540268
2021-03-20 18:05:28.202060,6.844238
2021-03-20 18:05:28.217680,5.986603
2021-03-20 18:05:28.233310,5.109314
2021-03-20 18:05:28.248940,4.310913
2021-03-20 18:05:28.264560,3.644363
2021-03-20 18:05:28.280190,3.081299
2021-03-20 18:05:28.295810,2.556641
2021-03-20 18:05:28.311440,2.023895
2021-03-20 18:05:28.327060,1.484833
2021-03-20 18:05:28.342690,0.9968109
2021-03-20 18:05:28.358320,0.647934
2021-03-20 18:05:28.373940,0.5139236
2021-03-20 18:05:28.389570,0.6276016
2021-03-20 18:05:28.405190,0.9743729
2021-03-20 18:05:28.420820,1.491188
2021-03-20 18:05:28.436450,2.110352
2021-03-20 18:05:28.452070,2.795998
2021-03-20 18:05:28.467700,3.534607
2021-03-20 18:05:28.483320,4.319664
2021-03-20 18:05:28.498950,5.129799
2021-03-20 18:05:28.514570,5.898369
2021-03-20 18:05:28.530200,6.522491
2021-03-20 18:05:28.545830,6.903381
2021-03-20 18:05:28.561450,6.952568
2021-03-20 18:05:28.577080,6.612717
2021-03-20 18:05:28.592700,5.865555
2021-03-20 18:05:28.608330,4.69046
2021-03-20 18:05:28.623950,3.107956
2021-03-20 18:05:28.639580,1.197845
2021-03-20 18:05:28.655210,-0.8514099
2021-03-20 18:05:28.670830,-2.756599
2021-03-20 18:05:28.686460,-4.213287
2021-03-20 18:05:28.702080,-5.003105
2021-03-20 18:05:28.717710,-5.110802
2021-03-20 18:05:28.733330,-4.712669
2021-03-20 18:05:28.748960,-4.155441
2021-03-20 18:05:28.764590,-3.819984
2021-03-20 18:05:28.780210,-4.028282
2021-03-20 18:05:28.795840,-4.956001
2021-03-20 18:05:28.811460,-6.661278
2021-03-20 18:05:28.827090,-9.07605
2021-03-20 18:05:28.842710,-12.02241
2021-03-20 18:05:28.858340,-15.24552
2021-03-20 18:05:28.873970,-18.38725
2021-03-20 18:05:28.889590,-21.04502
2021-03-20 18:05:28.905220,-22.84598
2021-03-20 18:05:28.920840,-23.53449
2021-03-20 18:05:28.936470,-23.07527
2021-03-20 18:05:28.952090,-21.6829
2021-03-20 18:05:28.967720,-19.77776
2021-03-20 18:05:28.983350,-17.83109
2021-03-20 18:05:28.998970,-16.19009
2021-03-20 18:05:29.014600,-14.97199
2021-03-20 18:05:29.030220,-14.04489
2021-03-20 18:05:29.045850,-13.16505
2021-03-20 18:05:29.061470,-12.14678
2021-03-20 18:05:29.077100,-10.98179
2021-03-20 18:05:29.092730,-9.836075
2021-03-20 18:05:29.108350,-8.936905
2021-03-20 18:05:29.123980,-8.441208
2021-03-20 18:05:29.139600,-8.334465
2021-03-20 18:05:29.155230,-8.472214
2021-03-20 18:05:29.170850,-8.665619
2021-03-20 18:05:29.186480,-8.798676
2021-03-20 18:05:29.202110,-8.852112
2021-03-20 18:05:29.217730,-8.87999
2021-03-20 18:05:29.233360,-8.911453
2021-03-20 18:05:29.248980,-8.907135
2021-03-20 18:05:29.264610,-8.747429
2021-03-20 18:05:29.280230,-8.30291
2021-03-20 18:05:29.295860,-7.497414
2021-03-20 18:05:29.311490,-6.350243
2021-03-20 18:05:29.327110,-4.941811
2021-03-20 18:05:29.342740,-3.364815
2021-03-20 18:05:29.358360,-1.692558
2021-03-20 18:05:29.373990,0.04489136
2021-03-20 18:05:29.389610,1.823349
2021-03-20 18:05:29.405240,3.582825
2021-03-20 18:05:29.420870,5.211678
2021-03-20 18:05:29.436490,6.576958
2021-03-20 18:05:29.452120,7.562653
2021-03-20 18:05:29.467740,8.11026
2021-03-20 18:05:29.483370,8.233826
2021-03-20 18:05:29.498990,7.99633
2021-03-20 18:05:29.514620,7.457649
2021-03-20 18:05:29.530250,6.667061
2021-03-20 18:05:29.545870,5.626663
2021-03-20 18:05:29.561500,4.359497
2021-03-20 18:05:29.577120,2.952888
2021-03-20 18:05:29.592750,1.573532
2021-03-20 18:05:29.608370,0.4504166
2021-03-20 18:05:29.624000,-0.2099609
2021-03-20 18:05:29.639630,-0.3065262
2021-03-20 18:05:29.655250,0.1020508
2021-03-20 18:05:29.670880,0.8324356
2021-03-20 18:05:29.686500,1.578316
2021-03-20 18:05:29.702130,2.063751
2021-03-20 18:05:29.717750,2.08812
2021-03-20 18:05:29.733380,1.59436
2021-03-20 18:05:29.749010,0.6477356
2021-03-20 18:05:29.764630,-0.580719
2021-03-20 18:05:29.780260,-1.840637
2021-03-20 18:05:29.795880,-2.860886
2021-03-20 18:05:29.811510,-3.315628
2021-03-20 18:05:29.827130,-2.927116
2021-03-20 18:05:29.842760,-1.532196
2021-03-20 18:05:29.858390,0.8294754
2021-03-20 18:05:29.874010,3.872673
2021-03-20 18:05:29.889640,7.110802
2021-03-20 18:05:29.905260,9.990028
2021-03-20 18:05:29.920890,12.05677
2021-03-20 18:05:29.936510,13.05176
2021-03-20 18:05:29.952140,13.00377
2021-03-20 18:05:29.967770,12.13287
2021-03-20 18:05:29.983390,10.73473
2021-03-20 18:05:29.999020,9.092621
2021-03-20 18:05:30.014640,7.368111
2021-03-20 18:05:30.030270,5.648956
2021-03-20 18:05:30.045890,3.988594
2021-03-20 18:05:30.061520,2.461136
2021-03-20 18:05:30.077150,1.17321
2021-03-20 18:05:30.092770,0.2645111
2021-03-20 18:05:30.108400,-0.1671143
2021-03-20 18:05:30.124020,-0.1503525
2021-03-20 18:05:30.139650,0.1849365
2021-03-20 18:05:30.155270,0.6060181
2021-03-20 18:05:30.170900,0.8782349
2021-03-20 18:05:30.186530,0.8324432
2021-03-20 18:05:30.202150,0.4420166
2021-03-20 18:05:30.217780,-0.1990814
2021-03-20 18:05:30.233400,-0.8705444
2021-03-20 18:05:30.249030,-1.37352
2021-03-20 18:05:30.264650,-1.585861
2021-03-20 18:05:30.280280,-1.477478
2021-03-20 18:05:30.295910,-1.145798
2021-03-20 18:05:30.311530,-0.7285156
2021-03-20 18:05:30.327160,-0.3402252
2021-03-20 18:05:30.342780,-0.03276062
2021-03-20 18:05:30.358410,0.1799927
2021-03-20 18:05:30.374030,0.33815
2021-03-20 18:05:30.389660,0.4334564
2021-03-20 18:05:30.405290,0.4308014
2021-03-20 18:05:30.420910,0.2696381
2021-03-20 18:05:30.436540,-0.1047821
2021-03-20 18:05:30.452160,-0.7384186
2021-03-20 18:05:30.467790,-1.596649
2021-03-20 18:05:30.483410,-2.610046
2021-03-20 18:05:30.499040,-3.66069
2021-03-20 18:05:30.514670,-4.608154
2021-03-20 18:05:30.530290,-5.360138
2021-03-20 18:05:30.545920,-5.891464
2021-03-20 18:05:30.561540,-6.267334
2021-03-20 18:05:30.577170,-6.641235
2021-03-20 18:05:30.592790,-7.244507
2021-03-20 18:05:30.608420,-8.264145
2021-03-20 18:05:30.624050,-9.830399
2021-03-20 18:05:30.639670,-11.93188
2021-03-20 18:05:30.655300,-14.35237
2021-03-20 18:05:30.670920,-16.70987
2021-03-20 18:05:30.686550,-18.45393
2021-03-20 18:05:30.702170,-19.00528
2021-03-20 18:05:30.717800,-17.92332
2021-03-20 18:05:30.733430,-15.05743
2021-03-20 18:05:30.749050,-10.66557
2021-03-20 18:05:30.764680,-5.397354
2021-03-20 18:05:30.780300,-0.1322937
2021-03-20 18:05:30.795930,4.298019
2021-03-20 18:05:30.811550,7.332489
2021-03-20 18:05:30.827180,8.848602
2021-03-20 18:05:30.842810,9.133545
2021-03-20 18:05:30.858430,8.725708
2021-03-20 18:05:30.874060,8.249115
2021-03-20 18:05:30.889680,8.196106
2021-03-20 18:05:30.905310,8.852188
2021-03-20 18:05:30.920930,10.22394
2021-03-20 18:05:30.936560,12.1384
2021-03-20 18:05:30.952190,14.26067
2021-03-20 18:05:30.967810,16.22633
2021-03-20 18:05:30.983440,17.75786
2021-03-20 18:05:30.999060,18.74756
2021-03-20 18:05:31.014690,19.36792
2021-03-20 18:05:31.030320,20.03864
2021-03-20 18:05:31.045940,21.29259
2021-03-20 18:05:31.061570,23.52766
2021-03-20 18:05:31.077190,26.79964
2021-03-20 18:05:31.092820,30.67918
2021-03-20 18:05:31.108440,34.3947
2021-03-20 18:05:31.124070,37.18796
2021-03-20 18:05:31.139700,38.70201
2021-03-20 18:05:31.155320,39.27234
2021-03-20 18:05:31.170950,39.77385
2021-03-20 18:05:31.186570,41.25342
2021-03-20 18:05:31.202200,44.34373
2021-03-20 18:05:31.217820,48.93086
2021-03-20 18:05:31.233450,54.23405
2021-03-20 18:05:31.249080,59.3055
2021-03-20 18:05:31.264700,63.59181
2021-03-20 18:05:31.280330,67.17429
2021-03-20 18:05:31.295950,70.56064
2021-03-20 18:05:31.311580,74.11338
2021-03-20 18:05:31.327200,77.62226
2021-03-20 18:05:31.342830,80.23557
2021-03-20 18:05:31.358460,80.78989
2021-03-20 18:05:31.374080,78.14044
2021-03-20 18:05:31.389710,71.19678
2021-03-20 18:05:31.405330,58.78274
2021-03-20 18:05:31.420960,39.63731
2021-03-20 18:05:31.436580,13.02129
2021-03-20 18:05:31.452210,-20.18255
2021-03-20 18:05:31.467840,-56.58923
2021-03-20 18:05:31.483460,-90.41134
2021-03-20 18:05:31.499090,-115.0268
2021-03-20 18:05:31.514710,-125.3832
2021-03-20 18:05:31.530340,-120.1003
2021-03-20 18:05:31.545960,-102.0216
2021-03-20 18:05:31.561590,-76.83997
2021-03-20 18:05:31.577220,-50.57028
2021-03-20 18:05:31.592840,-27.22956
2021-03-20 18:05:31.608470,-7.963623
2021-03-20 18:05:31.624090,8.106964
2021-03-20 18:05:31.639720,22.06979
2021-03-20 18:05:31.655340,33.77747
2021-03-20 18:05:31.670970,41.37554
2021-03-20 18:05:31.686600,42.44845
2021-03-20 18:05:31.702220,35.68513
2021-03-20 18:05:31.717850,22.09527
2021-03-20 18:05:31.733470,5.174744
2021-03-20 18:05:31.749100,-10.07126
2021-03-20 18:05:31.764720,-18.67532
2021-03-20 18:05:31.780350,-17.08648
2021-03-20 18:05:31.795980,-4.079729
2021-03-20 18:05:31.811600,18.88913
2021-03-20 18:05:31.827230,47.89701
2021-03-20 18:05:31.842850,77.18388
2021-03-20 18:05:31.858480,100.3494
2021-03-20 18:05:31.874100,111.9795
2021-03-20 18:05:31.889730,109.259
2021-03-20 18:05:31.905360,92.95647
2021-03-20 18:05:31.920980,67.26759
2021-03-20 18:05:31.936610,38.37234
2021-03-20 18:05:31.952230,12.35698
2021-03-20 18:05:31.967860,-6.640038
2021-03-20 18:05:31.983480,-17.26331
2021-03-20 18:05:31.999110,-20.57246
2021-03-20 18:05:32.014740,-18.8387
2021-03-20 18:05:32.030360,-14.35264
2021-03-20 18:05:32.045990,-8.853287
2021-03-20 18:05:32.061610,-3.493294
2021-03-20 18:05:32.077240,0.8183594
2021-03-20 18:05:32.092860,3.274956
2021-03-20 18:05:32.108490,3.323135
2021-03-20 18:05:32.124120,0.9236069
2021-03-20 18:05:32.139740,-3.318504
2021-03-20 18:05:32.155370,-8.205238
2021-03-20 18:05:32.170990,-12.4503
2021-03-20 18:05:32.186620,-15.22749
2021-03-20 18:05:32.202240,-16.50221
2021-03-20 18:05:32.217870,-16.98636
2021-03-20 18:05:32.249120,-19.17915
2021-03-20 18:05:32.264750,-21.20937
2021-03-20 18:05:32.280370,-22.68588
2021-03-20 18:05:32.296000,-22.26299
2021-03-20 18:05:32.311620,-19.12123
2021-03-20 18:05:32.327250,-13.57384
2021-03-20 18:05:32.342880,-7.091858
2021-03-20 18:05:32.358500,-1.716507
2021-03-20 18:05:32.374130,0.7457123
2021-03-20 18:05:32.389750,-0.5765076
2021-03-20 18:05:32.405380,-5.427872
2021-03-20 18:05:32.421000,-12.62514
2021-03-20 18:05:32.436630,-20.57321
2021-03-20 18:05:32.452260,-27.79218
2021-03-20 18:05:32.467880,-33.26918
2021-03-20 18:05:32.483510,-36.60713
2021-03-20 18:05:32.499130,-38.02388
2021-03-20 18:05:32.514760,-38.22197
2021-03-20 18:05:32.530380,-38.12753
2021-03-20 18:05:32.546010,-38.58929
2021-03-20 18:05:32.561640,-40.0011
2021-03-20 18:05:32.577260,-42.05884
2021-03-20 18:05:32.592890,-43.80566
2021-03-20 18:05:32.608510,-43.97769
2021-03-20 18:05:32.624140,-41.43979
2021-03-20 18:05:32.639760,-35.55685
2021-03-20 18:05:32.655390,-26.37988
2021-03-20 18:05:32.671020,-14.51254
2021-03-20 18:05:32.686640,-0.9509888
2021-03-20 18:05:32.702270,12.98859
2021-03-20 18:05:32.717890,25.67291
2021-03-20 18:05:32.733520,35.22314
2021-03-20 18:05:32.749140,39.88406
2021-03-20 18:05:32.764770,38.70377
2021-03-20 18:05:32.780400,32.14023
2021-03-20 18:05:32.796020,22.16403
2021-03-20 18:05:32.811650,11.68924
2021-03-20 18:05:32.827270,3.405853
2021-03-20 18:05:32.842900,-1.367462
2021-03-20 18:05:32.858520,-3.136322
2021-03-20 18:05:32.874150,-3.715515
2021-03-20 18:05:32.889780,-5.030243
2021-03-20 18:05:32.905400,-7.977905
2021-03-20 18:05:32.921030,-11.96967
2021-03-20 18:05:32.936650,-15.38718
2021-03-20 18:05:32.952280,-16.61163
2021-03-20 18:05:32.967900,-14.93985
2021-03-20 18:05:32.983530,-10.83658
2021-03-20 18:05:32.999160,-5.572266
2021-03-20 18:05:33.014780,-0.4851074
2021-03-20 18:05:33.030410,3.554657
2021-03-20 18:05:33.046030,6.222626
2021-03-20 18:05:33.061660,7.459534
2021-03-20 18:05:33.077280,7.10498
2021-03-20 18:05:33.092910,4.746704
2021-03-20 18:05:33.108540,-0.1629944
2021-03-20 18:05:33.124160,-7.980865
2021-03-20 18:05:33.139790,-18.57498
2021-03-20 18:05:33.155410,-31.22729
2021-03-20 18:05:33.171040,-44.78339
2021-03-20 18:05:33.186670,-58.01044
2021-03-20 18:05:33.202290,-69.96008
2021-03-20 18:05:33.217920,-80.24899
2021-03-20 18:05:33.233540,-89.14944
2021-03-20 18:05:33.249170,-97.38498
2021-03-20 18:05:33.264790,-105.7513
2021-03-20 18:05:33.280420,-114.7161
2021-03-20 18:05:33.296050,-124.1206
2021-03-20 18:05:33.311670,-133.1856
2021-03-20 18:05:33.327300,-140.7602
2021-03-20 18:05:33.342920,-145.7112
2021-03-20 18:05:33.358550,-147.2683
2021-03-20 18:05:33.374170,-145.1837
2021-03-20 18:05:33.389800,-139.6321
2021-03-20 18:05:33.405430,-130.9932
2021-03-20 18:05:33.421050,-119.6626
2021-03-20 18:05:33.436680,-106.0009
2021-03-20 18:05:33.452300,-90.44067
2021-03-20 18:05:33.467930,-73.66275
2021-03-20 18:05:33.483550,-56.64481
2021-03-20 18:05:33.499180,-40.58652
2021-03-20 18:05:33.514810,-26.59366
2021-03-20 18:05:33.530430,-15.29803
2021-03-20 18:05:33.546060,-6.626801
2021-03-20 18:05:33.561680,0.161499
2021-03-20 18:05:33.577310,6.208496
2021-03-20 18:05:33.592930,12.60538
2021-03-20 18:05:33.608560,20.03427
2021-03-20 18:05:33.624190,28.64218
2021-03-20 18:05:33.639810,38.13464
2021-03-20 18:05:33.655440,48.00806
2021-03-20 18:05:33.671060,57.78445
2021-03-20 18:05:33.686690,67.117
2021-03-20 18:05:33.702310,75.75281
2021-03-20 18:05:33.717940,83.54126
2021-03-20 18:05:33.733570,90.42255
2021-03-20 18:05:33.749190,96.50845
2021-03-20 18:05:33.764820,102.1083
2021-03-20 18:05:33.780440,107.6029
2021-03-20 18:05:33.796070,113.1394
2021-03-20 18:05:33.811690,118.3926
2021-03-20 18:05:33.827320,122.4824
2021-03-20 18:05:33.842950,124.2657
2021-03-20 18:05:33.858570,122.8572
2021-03-20 18:05:33.874200,118.0747
2021-03-20 18:05:33.889820,110.6359
2021-03-20 18:05:33.905450,101.9125
2021-03-20 18:05:33.921070,93.39932
2021-03-20 18:05:33.936700,86.10904
2021-03-20 18:05:33.952330,80.24957
2021-03-20 18:05:33.967950,75.26691
2021-03-20 18:05:33.983580,70.23294
2021-03-20 18:05:33.999200,64.31381
2021-03-20 18:05:34.014830,57.11539
2021-03-20 18:05:34.030450,48.82056
2021-03-20 18:05:34.046080,40.00894
2021-03-20 18:05:34.061710,31.40891
2021-03-20 18:05:34.077330,23.59097
2021-03-20 18:05:34.092960,16.77689
2021-03-20 18:05:34.108580,10.80499
2021-03-20 18:05:34.124210,5.287292
2021-03-20 18:05:34.139830,-0.09835815
2021-03-20 18:05:34.155460,-5.410065
2021-03-20 18:05:34.171090,-10.33987
2021-03-20 18:05:34.186710,-14.43756
2021-03-20 18:05:34.202340,-17.36026
2021-03-20 18:05:34.217960,-19.17303
2021-03-20 18:05:34.233590,-20.36346
2021-03-20 18:05:34.249210,-21.67181
2021-03-20 18:05:34.264840,-23.72998
2021-03-20 18:05:34.280470,-26.72638
2021-03-20 18:05:34.296090,-30.29578
2021-03-20 18:05:34.311720,-33.63852
2021-03-20 18:05:34.327340,-35.92203
2021-03-20 18:05:34.342970,-36.60953
2021-03-20 18:05:34.358590,-35.66879
2021-03-20 18:05:34.374220,-33.54733
2021-03-20 18:05:34.389850,-30.95911
2021-03-20 18:05:34.405470,-28.63928
2021-03-20 18:05:34.421100,-27.10727
2021-03-20 18:05:34.436720,-26.56506
2021-03-20 18:05:34.452350,-26.88602
2021-03-20 18:05:34.467970,-27.67853
2021-03-20 18:05:34.483600,-28.35788
2021-03-20 18:05:34.499230,-28.32083
2021-03-20 18:05:34.514850,-27.17963
2021-03-20 18:05:34.530480,-24.91403
2021-03-20 18:05:34.561730,-19.54358
2021-03-20 18:05:34.577350,-18.61841
2021-03-20 18:05:34.592980,-20.27588
2021-03-20 18:05:34.608610,-24.92871
2021-03-20 18:05:34.624230,-32.07904
2021-03-20 18:05:34.639860,-40.2923
2021-03-20 18:05:34.655480,-47.54071
2021-03-20 18:05:34.671110,-51.78256
2021-03-20 18:05:34.686730,-51.73035
2021-03-20 18:05:34.702360,-47.38608
2021-03-20 18:05:34.717990,-40.14304
2021-03-20 18:05:34.733610,-32.34003
2021-03-20 18:05:34.749240,-26.35495
2021-03-20 18:05:34.764860,-23.74554
2021-03-20 18:05:34.780490,-24.69531
2021-03-20 18:05:34.796110,-28.13174
2021-03-20 18:05:34.811740,-32.30835
2021-03-20 18:05:34.827370,-35.5737
2021-03-20 18:05:34.842990,-36.91037
2021-03-20 18:05:34.858620,-36.03403
2021-03-20 18:05:34.874240,-33.15228
2021-03-20 18:05:34.889870,-28.62128
2021-03-20 18:05:34.905490,-22.78433
2021-03-20 18:05:34.921120,-16.00128
2021-03-20 18:05:34.936750,-8.757721
2021-03-20 18:05:34.952370,-1.794617
2021-03-20 18:05:34.968000,4.059998
2021-03-20 18:05:34.983620,8.071899
2021-03-20 18:05:34.999250,9.845612
2021-03-20 18:05:35.014870,9.38678
2021-03-20 18:05:35.030500,7.09082
2021-03-20 18:05:35.046130,3.610229
2021-03-20 18:05:35.061750,-0.3050842
2021-03-20 18:05:35.077380,-3.911896
2021-03-20 18:05:35.093000,-6.674866
2021-03-20 18:05:35.108630,-8.350098
2021-03-20 18:05:35.124250,-9.01178
2021-03-20 18:05:35.139880,-8.94516
2021-03-20 18:05:35.155510,-8.456512
2021-03-20 18:05:35.171130,-7.683167
2021-03-20 18:05:35.186760,-6.535522
2021-03-20 18:05:35.202380,-4.81781
2021-03-20 18:05:35.218010,-2.373138
2021-03-20 18:05:35.233630,0.6916199
2021-03-20 18:05:35.249260,4.041107
2021-03-20 18:05:35.264890,7.210907
2021-03-20 18:05:35.280510,9.817871
2021-03-20 18:05:35.296140,11.71887
2021-03-20 18:05:35.311760,12.97702
2021-03-20 18:05:35.327390,13.81183
2021-03-20 18:05:35.343010,14.41891
2021-03-20 18:05:35.358640,14.96295
2021-03-20 18:05:35.374270,15.52829
2021-03-20 18:05:35.389890,16.20911
2021-03-20 18:05:35.405520,17.0723
2021-03-20 18:05:35.421140,18.14462
2021-03-20 18:05:35.436770,19.39752
2021-03-20 18:05:35.452390,20.66751
2021-03-20 18:05:35.468020,21.68698
2021-03-20 18:05:35.483650,22.06885
2021-03-20 18:05:35.499270,21.45874
2021-03-20 18:05:35.514900,19.64572
2021-03-20 18:05:35.530520,16.76599
2021-03-20 18:05:35.546150,13.3757
2021-03-20 18:05:35.561770,10.30576
2021-03-20 18:05:35.577400,8.435669
2021-03-20 18:05:35.593030,8.260498
2021-03-20 18:05:35.608650,9.681152
2021-03-20 18:05:35.624280,11.99506
2021-03-20 18:05:35.639900,14.20784
2021-03-20 18:05:35.655530,15.44168
2021-03-20 18:05:35.671150,15.31711
2021-03-20 18:05:35.686780,14.02585
2021-03-20 18:05:35.702410,12.16263
2021-03-20 18:05:35.718030,10.41499
2021-03-20 18:05:35.733660,9.228943
2021-03-20 18:05:35.749280,8.661057
2021-03-20 18:05:35.764910,8.417755
2021-03-20 18:05:35.780530,8.036896
2021-03-20 18:05:35.796160,7.106918
2021-03-20 18:05:35.811790,5.438339
2021-03-20 18:05:35.827410,3.177261
2021-03-20 18:05:35.843040,0.7447815
2021-03-20 18:05:35.858660,-1.263962
2021-03-20 18:05:35.874290,-2.28302
2021-03-20 18:05:35.889920,-1.898026
2021-03-20 18:05:35.905540,0.04551697
2021-03-20 18:05:35.921170,3.455475
2021-03-20 18:05:35.936790,8.041077
2021-03-20 18:05:35.952420,13.37582
2021-03-20 18:05:35.968040,18.96701
2021-03-20 18:05:35.983670,24.32095
2021-03-20 18:05:35.999300,29.09282
2021-03-20 18:05:36.014920,33.15088
2021-03-20 18:05:36.030550,36.64648
2021-03-20 18:05:36.046170,39.95824
2021-03-20 18:05:36.061800,43.5172
2021-03-20 18:05:36.077420,47.65176
2021-03-20 18:05:36.093050,52.44295
2021-03-20 18:05:36.108680,57.71812
2021-03-20 18:05:36.124300,63.121
2021-03-20 18:05:36.139930,68.27274
2021-03-20 18:05:36.155550,72.85687
2021-03-20 18:05:36.171180,76.74103
2021-03-20 18:05:36.186800,80.02942
2021-03-20 18:05:36.202430,83.06448
2021-03-20 18:05:36.218060,86.31079
2021-03-20 18:05:36.233680,90.12039
2021-03-20 18:05:36.249310,94.48132
2021-03-20 18:05:36.264930,98.84943
2021-03-20 18:05:36.280560,102.2968
2021-03-20 18:05:36.296180,103.7902
2021-03-20 18:05:36.311810,102.6396
2021-03-20 18:05:36.327440,98.72134
2021-03-20 18:05:36.343060,92.48346
2021-03-20 18:05:36.358690,84.70471
2021-03-20 18:05:36.374310,76.24225
2021-03-20 18:05:36.389940,67.95352
2021-03-20 18:05:36.405560,60.69705
2021-03-20 18:05:36.421190,55.3587
2021-03-20 18:05:36.436820,52.57083
2021-03-20 18:05:36.452440,52.28363
2021-03-20 18:05:36.468070,53.37784
2021-03-20 18:05:36.483690,53.71021
2021-03-20 18:05:36.499320,50.77737
2021-03-20 18:05:36.514940,42.72964
2021-03-20 18:05:36.530570,29.23541
2021-03-20 18:05:36.546200,11.62897
2021-03-20 18:05:36.561820,-7.671021
2021-03-20 18:05:36.577450,-26.25864
2021-03-20 18:05:36.593070,-42.67126
2021-03-20 18:05:36.608700,-56.73276
2021-03-20 18:05:36.624320,-69.16141
2021-03-20 18:05:36.639950,-80.80338
2021-03-20 18:05:36.655580,-91.96674
2021-03-20 18:05:36.671200,-102.2875
2021-03-20 18:05:36.686830,-111.0665
2021-03-20 18:05:36.702450,-117.8196
2021-03-20 18:05:36.718080,-122.648
2021-03-20 18:05:36.733700,-126.206
2021-03-20 18:05:36.749330,-129.3466
2021-03-20 18:05:36.764960,-132.7295
2021-03-20 18:05:36.796210,-140.8907
2021-03-20 18:05:36.811830,-145.1834
2021-03-20 18:05:36.827460,-148.9359
2021-03-20 18:05:36.843080,-151.3927
2021-03-20 18:05:36.858710,-151.6275
2021-03-20 18:05:36.874340,-148.7416
2021-03-20 18:05:36.889960,-142.234
2021-03-20 18:05:36.905590,-132.342
2021-03-20 18:05:36.921210,-120.1071
2021-03-20 18:05:36.936840,-107.0699
2021-03-20 18:05:36.952460,-94.67841
2021-03-20 18:05:36.968090,-83.77142
2021-03-20 18:05:36.983720,-74.38745
2021-03-20 18:05:36.999340,-66.02356
2021-03-20 18:05:37.014970,-58.09589
2021-03-20 18:05:37.030590,-50.31665
2021-03-20 18:05:37.046220,-42.8064
2021-03-20 18:05:37.061840,-35.85498
2021-03-20 18:05:37.077470,-29.6452
2021-03-20 18:05:37.093100,-24.07159
2021-03-20 18:05:37.108720,-18.8031
2021-03-20 18:05:37.124350,-13.43384
2021-03-20 18:05:37.139970,-7.662842
2021-03-20 18:05:37.155600,-1.368469
2021-03-20 18:05:37.171220,5.346313
2021-03-20 18:05:37.186850,12.21234
2021-03-20 18:05:37.202480,18.86243
2021-03-20 18:05:37.218100,24.99927
2021-03-20 18:05:37.233730,30.55188
2021-03-20 18:05:37.249350,35.73184
2021-03-20 18:05:37.264980,40.94675
2021-03-20 18:05:37.280600,46.48267
2021-03-20 18:05:37.296230,52.2424
2021-03-20 18:05:37.311860,57.67038
2021-03-20 18:05:37.327480,61.9498
2021-03-20 18:05:37.343110,64.39853
2021-03-20 18:05:37.358730,64.79944
2021-03-20 18:05:37.374360,63.38046
2021-03-20 18:05:37.389980,60.50079
2021-03-20 18:05:37.405610,56.26358
2021-03-20 18:05:37.421240,50.38812
2021-03-20 18:05:37.436860,42.46216
2021-03-20 18:05:37.452490,32.39645
2021-03-20 18:05:37.468110,20.76849
2021-03-20 18:05:37.483740,8.588013
2021-03-20 18:05:37.499360,-3.196014
2021-03-20 18:05:37.514990,-14.25964
2021-03-20 18:05:37.530620,-25.05457
2021-03-20 18:05:37.546240,-36.37064
2021-03-20 18:05:37.561870,-48.60385
2021-03-20 18:05:37.577490,-61.1246
2021-03-20 18:05:37.593120,-72.228
2021-03-20 18:05:37.608740,-79.77707
2021-03-20 18:05:37.624370,-82.18341
2021-03-20 18:05:37.640000,-79.14542
2021-03-20 18:05:37.655620,-71.77911
2021-03-20 18:05:37.671250,-62.08258
2021-03-20 18:05:37.686870,-51.98984
2021-03-20 18:05:37.702500,-42.71832
2021-03-20 18:05:37.718120,-34.53647
2021-03-20 18:05:37.733750,-27.13116
2021-03-20 18:05:37.749380,-20.13925
2021-03-20 18:05:37.765000,-13.55505
2021-03-20 18:05:37.780630,-7.689178
2021-03-20 18:05:37.796250,-2.940002
2021-03-20 18:05:37.811880,0.5184937
2021-03-20 18:05:37.827500,2.794647
2021-03-20 18:05:37.843130,4.078278
2021-03-20 18:05:37.858760,4.401154
2021-03-20 18:05:37.874380,3.531097
2021-03-20 18:05:37.890010,1.198212
2021-03-20 18:05:37.905630,-2.560791
2021-03-20 18:05:37.921260,-7.092804
2021-03-20 18:05:37.936880,-11.19449
2021-03-20 18:05:37.952510,-13.52744
2021-03-20 18:05:37.968140,-13.02533
2021-03-20 18:05:37.983760,-9.289917
2021-03-20 18:05:37.999390,-2.584778
2021-03-20 18:05:38.015010,6.355988
2021-03-20 18:05:38.030640,16.63559
2021-03-20 18:05:38.046270,27.37729
2021-03-20 18:05:38.061890,37.81808
2021-03-20 18:05:38.077520,47.3959
2021-03-20 18:05:38.093140,55.83139
2021-03-20 18:05:38.108770,63.23456
2021-03-20 18:05:38.124390,70.02246
2021-03-20 18:05:38.140020,76.69617
2021-03-20 18:05:38.155650,83.43115
2021-03-20 18:05:38.171270,89.82312
2021-03-20 18:05:38.186900,94.88968
2021-03-20 18:05:38.202520,97.47763
2021-03-20 18:05:38.218150,96.89951
2021-03-20 18:05:38.233770,93.32739
2021-03-20 18:05:38.249400,87.89542
2021-03-20 18:05:38.265030,82.13803
2021-03-20 18:05:38.280650,77.3457
2021-03-20 18:05:38.296280,74.00314
2021-03-20 18:05:38.311900,71.71317
2021-03-20 18:05:38.327530,69.52316
2021-03-20 18:05:38.343150,66.47717
2021-03-20 18:05:38.358780,62.03406
2021-03-20 18:05:38.374410,56.11719
2021-03-20 18:05:38.390030,48.9556
2021-03-20 18:05:38.405660,40.81143
2021-03-20 18:05:38.421280,31.94052
2021-03-20 18:05:38.436910,22.68912
2021-03-20 18:05:38.452530,13.71686
2021-03-20 18:05:38.468160,5.923676
2021-03-20 18:05:38.483790,0.1005859
2021-03-20 18:05:38.499410,-3.551178
2021-03-20 18:05:38.515040,-5.780762
2021-03-20 18:05:38.530660,-8.124786
2021-03-20 18:05:38.546290,-12.31784
2021-03-20 18:05:38.561910,-19.49777
2021-03-20 18:05:38.577540,-29.61322
2021-03-20 18:05:38.593170,-41.40164
2021-03-20 18:05:38.608790,-52.92831
2021-03-20 18:05:38.624420,-62.40503
2021-03-20 18:05:38.640040,-68.79816
2021-03-20 18:05:38.655670,-72.02673
2021-03-20 18:05:38.671290,-72.6387
2021-03-20 18:05:38.686920,-71.34402
2021-03-20 18:05:38.702550,-68.66953
2021-03-20 18:05:38.718170,-64.93942
2021-03-20 18:05:38.733800,-60.47931
2021-03-20 18:05:38.749420,-55.79581
2021-03-20 18:05:38.765050,-51.58038
2021-03-20 18:05:38.780670,-48.46884
2021-03-20 18:05:38.796300,-46.75586
2021-03-20 18:05:38.811930,-46.16983
2021-03-20 18:05:38.827550,-45.96695
2021-03-20 18:05:38.843180,-45.23618
2021-03-20 18:05:38.858800,-43.22388
2021-03-20 18:05:38.874430,-39.60471
2021-03-20 18:05:38.890050,-34.5322
2021-03-20 18:05:38.905680,-28.53137
2021-03-20 18:05:38.921310,-22.29184
2021-03-20 18:05:38.936930,-16.52249
2021-03-20 18:05:38.952560,-11.80847
2021-03-20 18:05:38.968180,-8.538086
2021-03-20 18:05:38.983810,-6.845947
2021-03-20 18:05:38.999430,-6.595764
2021-03-20 18:05:39.015060,-7.417084
2021-03-20 18:05:39.030690,-8.815979
2021-03-20 18:05:39.046310,-10.31601
2021-03-20 18:05:39.061940,-11.60791
2021-03-20 18:05:39.077560,-12.59775
2021-03-20 18:05:39.093190,-13.38116
2021-03-20 18:05:39.108810,-14.15201
2021-03-20 18:05:39.124440,-15.06458
2021-03-20 18:05:39.140070,-16.16907
2021-03-20 18:05:39.155690,-17.41446
2021-03-20 18:05:39.171320,-18.64395
2021-03-20 18:05:39.186940,-19.6889
2021-03-20 18:05:39.202570,-20.39899
2021-03-20 18:05:39.218190,-20.73889
2021-03-20 18:05:39.233820,-20.77594
2021-03-20 18:05:39.249450,-20.65387
2021-03-20 18:05:39.265070,-20.48972
2021-03-20 18:05:39.280700,-20.31024
2021-03-20 18:05:39.296320,-20.0862
2021-03-20 18:05:39.311950,-19.73788
2021-03-20 18:05:39.327570,-19.24367
2021-03-20 18:05:39.343200,-18.70703
2021-03-20 18:05:39.358830,-18.35081
2021-03-20 18:05:39.374450,-18.38925
2021-03-20 18:05:39.390080,-18.89055
2021-03-20 18:05:39.405700,-19.65833
2021-03-20 18:05:39.421330,-20.25726
2021-03-20 18:05:39.436950,-20.15643
2021-03-20 18:05:39.452580,-18.93117
2021-03-20 18:05:39.468210,-16.42735
2021-03-20 18:05:39.483830,-12.73427
2021-03-20 18:05:39.499460,-8.031113
2021-03-20 18:05:39.515080,-2.359802
2021-03-20 18:05:39.530710,4.445007
2021-03-20 18:05:39.546330,12.55841
2021-03-20 18:05:39.561960,21.8378
2021-03-20 18:05:39.577590,31.5137
2021-03-20 18:05:39.593210,40.2224
2021-03-20 18:05:39.608840,46.37727
2021-03-20 18:05:39.624460,48.80472
2021-03-20 18:05:39.640090,47.22003
2021-03-20 18:05:39.655710,42.35051
2021-03-20 18:05:39.671340,35.64214
2021-03-20 18:05:39.686970,28.61359
2021-03-20 18:05:39.702590,22.3866
2021-03-20 18:05:39.718220,17.42204
2021-03-20 18:05:39.733840,13.69569
2021-03-20 18:05:39.749470,11.02327
2021-03-20 18:05:39.765090,9.321724
2021-03-20 18:05:39.780720,8.65612
2021-03-20 18:05:39.796350,9.057945
2021-03-20 18:05:39.811970,10.3427
2021-03-20 18:05:39.827600,12.03595
2021-03-20 18:05:39.843220,13.52936
2021-03-20 18:05:39.858850,14.32172
2021-03-20 18:05:39.874470,14.21013
2021-03-20 18:05:39.890100,13.37831
2021-03-20 18:05:39.905730,12.24814
2021-03-20 18:05:39.921350,11.26676
2021-03-20 18:05:39.936980,10.68821
2021-03-20 18:05:39.952600,10.47836
2021-03-20 18:05:39.968230,10.36098
2021-03-20 18:05:39.983850,10.00858
2021-03-20 18:05:39.999480,9.165871
2021-03-20 18:05:40.015110,7.785522
2021-03-20 18:05:40.030730,6.029514
2021-03-20 18:05:40.046360,4.15646
2021-03-20 18:05:40.061980,2.395241
2021-03-20 18:05:40.077610,0.8069115
2021-03-20 18:05:40.093230,-0.769043
2021-03-20 18:05:40.108860,-2.647152
2021-03-20 18:05:40.124490,-5.12447
2021-03-20 18:05:40.140110,-8.369026
2021-03-20 18:05:40.171360,-16.42981
2021-03-20 18:05:40.186990,-20.2144
2021-03-20 18:05:40.202610,-22.92859
2021-03-20 18:05:40.218240,-23.99801
2021-03-20 18:05:40.233870,-23.14683
2021-03-20 18:05:40.249490,-20.4914
2021-03-20 18:05:40.265120,-16.49187
2021-03-20 18:05:40.280740,-11.86604
2021-03-20 18:05:40.296370,-7.349447
2021-03-20 18:05:40.312000,-3.502484
2021-03-20 18:05:40.327620,-0.6196146
2021-03-20 18:05:40.343250,1.295804
2021-03-20 18:05:40.358870,2.452887
2021-03-20 18:05:40.374500,3.134274
2021-03-20 18:05:40.390120,3.617184
2021-03-20 18:05:40.405750,4.10918
2021-03-20 18:05:40.421380,4.724321
2021-03-20 18:05:40.437000,5.487856
2021-03-20 18:05:40.452630,6.352638
2021-03-20 18:05:40.468250,7.200542
2021-03-20 18:05:40.483880,7.893509
2021-03-20 18:05:40.499500,8.33815
2021-03-20 18:05:40.515130,8.505939
2021-03-20 18:05:40.530760,8.443317
2021-03-20 18:05:40.546380,8.241566
2021-03-20 18:05:40.562010,7.998058
2021-03-20 18:05:40.577630,7.790386
2021-03-20 18:05:40.593260,7.673859
2021-03-20 18:05:40.608880,7.678802
2021-03-20 18:05:40.624510,7.84317
2021-03-20 18:05:40.640140,8.15583
2021-03-20 18:05:40.655760,8.536964
2021-03-20 18:05:40.671390,8.823296
2021-03-20 18:05:40.687010,8.82872
2021-03-20 18:05:40.702640,8.391159
2021-03-20 18:05:40.718260,7.46032
2021-03-20 18:05:40.733890,6.120026
2021-03-20 18:05:40.749520,4.609222
2021-03-20 18:05:40.765140,3.249779
2021-03-20 18:05:40.780770,2.3265
2021-03-20 18:05:40.796390,1.968887
2021-03-20 18:05:40.812020,2.093994
2021-03-20 18:05:40.827640,2.395424
2021-03-20 18:05:40.843270,2.418495
2021-03-20 18:05:40.858900,1.702179
2021-03-20 18:05:40.874520,-0.04455566
2021-03-20 18:05:40.890150,-2.793533
2021-03-20 18:05:40.905770,-6.139206
2021-03-20 18:05:40.921400,-9.361404
2021-03-20 18:05:40.937020,-11.60974
2021-03-20 18:05:40.952650,-12.18182
2021-03-20 18:05:40.968280,-10.72847
2021-03-20 18:05:40.983900,-7.370605
2021-03-20 18:05:40.999530,-2.61937
2021-03-20 18:05:41.015150,2.785889
2021-03-20 18:05:41.030780,8.147385
2021-03-20 18:05:41.046400,12.93533
2021-03-20 18:05:41.062030,16.88498
2021-03-20 18:05:41.077660,19.95314
2021-03-20 18:05:41.093280,22.19933
2021-03-20 18:05:41.108910,23.6976
2021-03-20 18:05:41.124530,24.52699
2021-03-20 18:05:41.140160,24.74869
2021-03-20 18:05:41.155780,24.45258
2021-03-20 18:05:41.171410,23.76624
2021-03-20 18:05:41.187040,22.82257
2021-03-20 18:05:41.202660,21.75566
2021-03-20 18:05:41.218290,20.67065
2021-03-20 18:05:41.233910,19.59918
2021-03-20 18:05:41.249540,18.54547
2021-03-20 18:05:41.265160,17.5128
2021-03-20 18:05:41.280790,16.5175
2021-03-20 18:05:41.296420,15.60028
2021-03-20 18:05:41.312040,14.83566
2021-03-20 18:05:41.327670,14.26846
2021-03-20 18:05:41.343290,13.88672
2021-03-20 18:05:41.358920,13.60826
2021-03-20 18:05:41.374540,13.26244
2021-03-20 18:05:41.390170,12.68933
2021-03-20 18:05:41.405800,11.78751
2021-03-20 18:05:41.421420,10.53911
2021-03-20 18:05:41.437050,9.005875
2021-03-20 18:05:41.452670,7.305435
2021-03-20 18:05:41.468300,5.567215
2021-03-20 18:05:41.483920,3.888306
2021-03-20 18:05:41.499550,2.331329
2021-03-20 18:05:41.515180,0.8778534
2021-03-20 18:05:41.530800,-0.5372925
2021-03-20 18:05:41.546430,-2.033676
2021-03-20 18:05:41.562050,-3.763992
2021-03-20 18:05:41.577680,-5.855042
2021-03-20 18:05:41.593300,-8.363937
2021-03-20 18:05:41.608930,-11.22208
2021-03-20 18:05:41.624560,-14.18845
2021-03-20 18:05:41.640180,-16.85086
2021-03-20 18:05:41.655810,-18.68938
2021-03-20 18:05:41.671430,-19.20679
2021-03-20 18:05:41.687060,-18.09607
2021-03-20 18:05:41.702680,-15.35718
2021-03-20 18:05:41.718310,-11.31137
2021-03-20 18:05:41.733940,-6.509918
2021-03-20 18:05:41.749560,-1.576874
2021-03-20 18:05:41.765190,2.97438
2021-03-20 18:05:41.780810,6.825317
2021-03-20 18:05:41.796440,9.841003
2021-03-20 18:05:41.812060,12.01016
2021-03-20 18:05:41.827690,13.3707
2021-03-20 18:05:41.843320,13.97116
2021-03-20 18:05:41.858940,13.90359
2021-03-20 18:05:41.874570,13.31134
2021-03-20 18:05:41.890190,12.37848
2021-03-20 18:05:41.905820,11.29126
2021-03-20 18:05:41.921440,10.21442
2021-03-20 18:05:41.937070,9.240173
2021-03-20 18:05:41.952700,8.427368
2021-03-20 18:05:41.968320,7.829742
2021-03-20 18:05:41.983950,7.500977
2021-03-20 18:05:41.999570,7.485413
2021-03-20 18:05:42.015200,7.784332
2021-03-20 18:05:42.030820,8.333435
2021-03-20 18:05:42.046450,8.964111
2021-03-20 18:05:42.062080,9.498901
2021-03-20 18:05:42.077700,9.774994
2021-03-20 18:05:42.093330,9.723114
2021-03-20 18:05:42.108950,9.370117
2021-03-20 18:05:42.124580,8.805023
2021-03-20 18:05:42.140200,8.124542
2021-03-20 18:05:42.155830,7.376312
2021-03-20 18:05:42.171460,6.553497
2021-03-20 18:05:42.187080,5.604065
2021-03-20 18:05:42.202710,4.515045
2021-03-20 18:05:42.218330,3.343933
2021-03-20 18:05:42.233960,2.225922
2021-03-20 18:05:42.249580,1.340485
2021-03-20 18:05:42.265210,0.8058777
2021-03-20 18:05:42.280840,0.6073914
2021-03-20 18:05:42.296460,0.5959473
2021-03-20 18:05:42.312090,0.5888062
2021-03-20 18:05:42.327710,0.5490417
2021-03-20 18:05:42.343340,0.7131653
2021-03-20 18:05:42.358960,1.608032
2021-03-20 18:05:42.374590,3.877014
2021-03-20 18:05:42.390220,8.00766
2021-03-20 18:05:42.405840,14.08414
2021-03-20 18:05:42.437090,30.10562
2021-03-20 18:05:42.452720,38.53027
2021-03-20 18:05:42.468340,46.38669
2021-03-20 18:05:42.483970,53.37619
2021-03-20 18:05:42.499600,59.39911
2021-03-20 18:05:42.515220,64.44156
2021-03-20 18:05:42.530850,68.57318
2021-03-20 18:05:42.546470,72.00195
2021-03-20 18:05:42.562100,75.1218
2021-03-20 18:05:42.577720,78.46387
2021-03-20 18:05:42.593350,82.46835
2021-03-20 18:05:42.608980,87.23984
2021-03-20 18:05:42.624600,92.39218
2021-03-20 18:05:42.640230,97.11389
2021-03-20 18:05:42.655850,100.4048
2021-03-20 18:05:42.671480,101.4186
2021-03-20 18:05:42.687100,99.68501
2021-03-20 18:05:42.702730,95.11464
2021-03-20 18:05:42.718360,87.86241
2021-03-20 18:05:42.733980,78.15076
2021-03-20 18:05:42.749610,66.18636
2021-03-20 18:05:42.765230,52.16341
2021-03-20 18:05:42.780860,36.32727
2021-03-20 18:05:42.796480,19.08345
2021-03-20 18:05:42.812110,1.043076
2021-03-20 18:05:42.827740,-16.93842
2021-03-20 18:05:42.843360,-33.90395
2021-03-20 18:05:42.858990,-49.01332
2021-03-20 18:05:42.874610,-61.81418
2021-03-20 18:05:42.890240,-72.39316
2021-03-20 18:05:42.905870,-81.29964
2021-03-20 18:05:42.921490,-89.2411
2021-03-20 18:05:42.937120,-96.69128
2021-03-20 18:05:42.952740,-103.6548
2021-03-20 18:05:42.968370,-109.6982
2021-03-20 18:05:42.983990,-114.2416
2021-03-20 18:05:42.999620,-116.8591
2021-03-20 18:05:43.015250,-117.4776
2021-03-20 18:05:43.030870,-116.3146
2021-03-20 18:05:43.046500,-113.6591
2021-03-20 18:05:43.062120,-109.6633
2021-03-20 18:05:43.077750,-104.3227
2021-03-20 18:05:43.093370,-97.6358
2021-03-20 18:05:43.109000,-89.83421
2021-03-20 18:05:43.124630,-81.46956
2021-03-20 18:05:43.140250,-73.25253
2021-03-20 18:05:43.155880,-65.84351
2021-03-20 18:05:43.171500,-59.59149
2021-03-20 18:05:43.187130,-54.40553
2021-03-20 18:05:43.202750,-49.82314
2021-03-20 18:05:43.218380,-45.22231
2021-03-20 18:05:43.234010,-40.03384
2021-03-20 18:05:43.249630,-33.96591
2021-03-20 18:05:43.265260,-27.04887
2021-03-20 18:05:43.280880,-19.63605
2021-03-20 18:05:43.296510,-12.24586
2021-03-20 18:05:43.312130,-5.336685
2021-03-20 18:05:43.327760,0.8822174
2021-03-20 18:05:43.343390,6.522995
2021-03-20 18:05:43.359010,11.92052
2021-03-20 18:05:43.374640,17.44604
2021-03-20 18:05:43.390260,23.31212
2021-03-20 18:05:43.405890,29.49051
2021-03-20 18:05:43.421510,35.70183
2021-03-20 18:05:43.437140,41.50703
2021-03-20 18:05:43.452770,46.384
2021-03-20 18:05:43.468390,49.83238
2021-03-20 18:05:43.484020,51.50726
2021-03-20 18:05:43.499640,51.37064
2021-03-20 18:05:43.515270,49.80699
2021-03-20 18:05:43.530890,47.52736
2021-03-20 18:05:43.546520,45.28107
2021-03-20 18:05:43.577770,41.91919
2021-03-20 18:05:43.593400,39.86372
2021-03-20 18:05:43.609020,36.39056
2021-03-20 18:05:43.624650,30.92937
2021-03-20 18:05:43.640270,23.60825
2021-03-20 18:05:43.655900,15.23038
2021-03-20 18:05:43.671530,6.923874
2021-03-20 18:05:43.687150,-0.3559418
2021-03-20 18:05:43.702780,-6.129242
2021-03-20 18:05:43.718400,-10.47699
2021-03-20 18:05:43.734030,-13.83131
2021-03-20 18:05:43.749650,-16.66309
2021-03-20 18:05:43.765280,-19.19746
2021-03-20 18:05:43.780910,-21.34003
2021-03-20 18:05:43.796530,-22.72243
2021-03-20 18:05:43.812160,-22.86497
2021-03-20 18:05:43.827780,-21.37755
2021-03-20 18:05:43.843410,-18.16762
2021-03-20 18:05:43.859030,-13.54555
2021-03-20 18:05:43.874660,-8.17865
2021-03-20 18:05:43.890290,-2.948181
2021-03-20 18:05:43.905910,1.34668
2021-03-20 18:05:43.921540,4.16684
2021-03-20 18:05:43.937160,5.337952
2021-03-20 18:05:43.952790,4.963135
2021-03-20 18:05:43.968410,3.261932
2021-03-20 18:05:43.984040,0.4341736
2021-03-20 18:05:43.999670,-3.366287
2021-03-20 18:05:44.015290,-7.933502
2021-03-20 18:05:44.030920,-12.90305
2021-03-20 18:05:44.046540,-17.73361
2021-03-20 18:05:44.062170,-21.7885
2021-03-20 18:05:44.077790,-24.51671
2021-03-20 18:05:44.093420,-25.62614
2021-03-20 18:05:44.109050,-25.21182
2021-03-20 18:05:44.124670,-23.67958
2021-03-20 18:05:44.140300,-21.62502
2021-03-20 18:05:44.155920,-19.63681
2021-03-20 18:05:44.171550,-18.1555
2021-03-20 18:05:44.187170,-17.41566
2021-03-20 18:05:44.202800,-17.44435
2021-03-20 18:05:44.218430,-18.09706
2021-03-20 18:05:44.234050,-19.1292
2021-03-20 18:05:44.249680,-20.28552
2021-03-20 18:05:44.265300,-21.36812
2021-03-20 18:05:44.280930,-22.30922
2021-03-20 18:05:44.296550,-23.12863
2021-03-20 18:05:44.312180,-23.85564
2021-03-20 18:05:44.327810,-24.43593
2021-03-20 18:05:44.343430,-24.70958
2021-03-20 18:05:44.359060,-24.51808
2021-03-20 18:05:44.374680,-23.79482
2021-03-20 18:05:44.390310,-22.65306
2021-03-20 18:05:44.405930,-21.32277
2021-03-20 18:05:44.421560,-20.03763
2021-03-20 18:05:44.437190,-18.92413
2021-03-20 18:05:44.452810,-17.95561
2021-03-20 18:05:44.468440,-16.96991
2021-03-20 18:05:44.484060,-15.72592
2021-03-20 18:05:44.499690,-14.00372
2021-03-20 18:05:44.515310,-11.63675
2021-03-20 18:05:44.530940,-8.565399
2021-03-20 18:05:44.546570,-4.858582
2021-03-20 18:05:44.562190,-0.7186279
2021-03-20 18:05:44.577820,3.562164
2021-03-20 18:05:44.593440,7.623352
2021-03-20 18:05:44.609070,11.16354
2021-03-20 18:05:44.624690,13.9949
2021-03-20 18:05:44.640320,16.08496
2021-03-20 18:05:44.655950,17.5239
2021-03-20 18:05:44.671570,18.45731
2021-03-20 18:05:44.687200,19.04404
2021-03-20 18:05:44.702820,19.43146
2021-03-20 18:05:44.718450,19.7702
2021-03-20 18:05:44.734070,20.21716
2021-03-20 18:05:44.749700,20.96155
2021-03-20 18:05:44.765330,22.14465
2021-03-20 18:05:44.780950,23.82932
2021-03-20 18:05:44.796580,25.9577
2021-03-20 18:05:44.812200,28.32578
2021-03-20 18:05:44.827830,30.58969
2021-03-20 18:05:44.843450,32.3783
2021-03-20 18:05:44.859080,33.40274
2021-03-20 18:05:44.874710,33.56354
2021-03-20 18:05:44.890330,32.99265
2021-03-20 18:05:44.905960,31.94772
2021-03-20 18:05:44.921580,30.68387
2021-03-20 18:05:44.937210,29.3526
2021-03-20 18:05:44.952830,28.01175
2021-03-20 18:05:44.968460,26.68936
2021-03-20 18:05:44.984090,25.47119
2021-03-20 18:05:44.999710,24.50317
2021-03-20 18:05:45.015340,23.89417
2021-03-20 18:05:45.030960,23.61072
2021-03-20 18:05:45.046590,23.42474
2021-03-20 18:05:45.062210,23.00073
2021-03-20 18:05:45.077840,22.05695
2021-03-20 18:05:45.093470,20.48734
2021-03-20 18:05:45.109090,18.39676
2021-03-20 18:05:45.124720,16.01373
2021-03-20 18:05:45.140340,13.55188
2021-03-20 18:05:45.155970,11.10864
2021-03-20 18:05:45.171600,8.684021
2021-03-20 18:05:45.187220,6.230164
2021-03-20 18:05:45.202850,3.757996
2021-03-20 18:05:45.218470,1.322479
2021-03-20 18:05:45.234100,-1.049652
2021-03-20 18:05:45.249720,-3.322113
2021-03-20 18:05:45.265350,-5.428894
2021-03-20 18:05:45.280980,-7.219055
2021-03-20 18:05:45.296600,-8.414063
2021-03-20 18:05:45.312230,-8.66214
2021-03-20 18:05:45.327850,-7.747345
2021-03-20 18:05:45.343480,-5.765594
2021-03-20 18:05:45.359100,-3.166504
2021-03-20 18:05:45.374730,-0.664978
2021-03-20 18:05:45.390360,1.074402
2021-03-20 18:05:45.405980,1.724091
2021-03-20 18:05:45.421610,1.380951
2021-03-20 18:05:45.437230,0.4697266
2021-03-20 18:05:45.452860,-0.4924011
2021-03-20 18:05:45.468480,-1.169098
2021-03-20 18:05:45.484110,-1.522614
2021-03-20 18:05:45.499740,-1.774475
2021-03-20 18:05:45.515360,-2.222382
2021-03-20 18:05:45.530990,-3.074341
2021-03-20 18:05:45.546610,-4.3526
2021-03-20 18:05:45.562240,-5.88324
2021-03-20 18:05:45.577860,-7.404175
2021-03-20 18:05:45.593490,-8.636993
2021-03-20 18:05:45.609120,-9.403442
2021-03-20 18:05:45.624740,-9.643066
2021-03-20 18:05:45.640370,-9.403259
2021-03-20 18:05:45.655990,-8.77066
2021-03-20 18:05:45.671620,-7.774475
2021-03-20 18:05:45.687240,-6.385559
2021-03-20 18:05:45.702870,-4.549957
2021-03-20 18:05:45.718500,-2.272644
2021-03-20 18:05:45.734120,0.2441711
2021-03-20 18:05:45.749750,2.588531
2021-03-20 18:05:45.765370,4.23111
2021-03-20 18:05:45.781000,4.712402
2021-03-20 18:05:45.796620,3.81485
2021-03-20 18:05:45.812250,1.67337
2021-03-20 18:05:45.843500,-4.39624
2021-03-20 18:05:45.859130,-7.139893
2021-03-20 18:05:45.874750,-9.100922
2021-03-20 18:05:45.890380,-10.13916
2021-03-20 18:05:45.906000,-10.35007
2021-03-20 18:05:45.921630,-10.02347
2021-03-20 18:05:45.937260,-9.551819
2021-03-20 18:05:45.952880,-9.327118
2021-03-20 18:05:45.968510,-9.659943
2021-03-20 18:05:45.984130,-10.68637
2021-03-20 18:05:45.999760,-12.30392
2021-03-20 18:05:46.015380,-14.16772
2021-03-20 18:05:46.031010,-15.78333
2021-03-20 18:05:46.046640,-16.5943
2021-03-20 18:05:46.062260,-16.1506
2021-03-20 18:05:46.077890,-14.23587
2021-03-20 18:05:46.093510,-10.93268
2021-03-20 18:05:46.109140,-6.616852
2021-03-20 18:05:46.124760,-1.844116
2021-03-20 18:05:46.140390,2.828918
2021-03-20 18:05:46.156020,6.990082
2021-03-20 18:05:46.171640,10.43427
2021-03-20 18:05:46.187270,13.1485
2021-03-20 18:05:46.202890,15.19321
2021-03-20 18:05:46.218520,16.6265
2021-03-20 18:05:46.234140,17.46573
2021-03-20 18:05:46.249770,17.69571
2021-03-20 18:05:46.265400,17.32516
2021-03-20 18:05:46.281020,16.45294
2021-03-20 18:05:46.296650,15.22552
2021-03-20 18:05:46.312270,13.84299
2021-03-20 18:05:46.327900,12.48596
2021-03-20 18:05:46.343520,11.255
2021-03-20 18:05:46.359150,10.19156
2021-03-20 18:05:46.374780,9.305603
2021-03-20 18:05:46.390400,8.618774
2021-03-20 18:05:46.406030,8.147247
2021-03-20 18:05:46.421650,7.860565
2021-03-20 18:05:46.437280,7.661011
2021-03-20 18:05:46.452900,7.419189
2021-03-20 18:05:46.468530,7.067291
2021-03-20 18:05:46.484160,6.632202
2021-03-20 18:05:46.499780,6.262512
2021-03-20 18:05:46.515410,6.149841
2021-03-20 18:05:46.531030,6.390411
2021-03-20 18:05:46.546660,6.948029
2021-03-20 18:05:46.562280,7.625153
2021-03-20 18:05:46.577910,8.221954
2021-03-20 18:05:46.593540,8.621307
2021-03-20 18:05:46.609160,8.871338
2021-03-20 18:05:46.624790,9.086029
2021-03-20 18:05:46.640410,9.318695
2021-03-20 18:05:46.656040,9.44986
2021-03-20 18:05:46.671660,9.22113
2021-03-20 18:05:46.687290,8.393188
2021-03-20 18:05:46.702920,6.912994
2021-03-20 18:05:46.718540,5.025238
2021-03-20 18:05:46.734170,3.16571
2021-03-20 18:05:46.749790,1.757324
2021-03-20 18:05:46.765420,0.9676819
2021-03-20 18:05:46.781040,0.7115173
2021-03-20 18:05:46.796670,0.6855164
2021-03-20 18:05:46.812300,0.6318054
2021-03-20 18:05:46.827920,0.5460205
2021-03-20 18:05:46.843550,0.6850281
2021-03-20 18:05:46.859170,1.438385
2021-03-20 18:05:46.874800,3.084167
2021-03-20 18:05:46.890420,5.593811
2021-03-20 18:05:46.921680,11.56122
2021-03-20 18:05:46.937300,13.95963
2021-03-20 18:05:46.952930,15.53616
2021-03-20 18:05:46.968550,16.33212
2021-03-20 18:05:46.984180,16.59833
2021-03-20 18:05:46.999800,16.61761
2021-03-20 18:05:47.015430,16.58835
2021-03-20 18:05:47.031060,16.54221
2021-03-20 18:05:47.046680,16.46255
2021-03-20 18:05:47.062310,16.33185
2021-03-20 18:05:47.077930,16.22235
2021-03-20 18:05:47.093560,16.27393
2021-03-20 18:05:47.109180,16.57947
2021-03-20 18:05:47.124810,17.11194
2021-03-20 18:05:47.140440,17.68106
2021-03-20 18:05:47.156060,17.9585
2021-03-20 18:05:47.171690,17.6048
2021-03-20 18:05:47.187310,16.40744
2021-03-20 18:05:47.202940,14.33844
2021-03-20 18:05:47.218560,11.54684
2021-03-20 18:05:47.234190,8.289276
2021-03-20 18:05:47.249820,4.839081
2021-03-20 18:05:47.265440,1.43222
2021-03-20 18:05:47.281070,-1.744324
2021-03-20 18:05:47.296690,-4.583466
2021-03-20 18:05:47.312320,-7.057495
2021-03-20 18:05:47.327940,-9.22049
2021-03-20 18:05:47.343570,-11.19165
2021-03-20 18:05:47.359200,-13.09839
2021-03-20 18:05:47.374820,-15.00031
2021-03-20 18:05:47.390450,-16.85266
2021-03-20 18:05:47.406070,-18.52423
2021-03-20 18:05:47.421700,-19.87479
2021-03-20 18:05:47.437330,-20.87555
2021-03-20 18:05:47.452950,-21.61435
2021-03-20 18:05:47.468580,-22.28339
2021-03-20 18:05:47.484200,-23.01251
2021-03-20 18:05:47.499830,-23.79761
2021-03-20 18:05:47.515450,-24.42731
2021-03-20 18:05:47.531080,-24.63904
2021-03-20 18:05:47.546710,-24.23264
2021-03-20 18:05:47.562330,-23.22034
2021-03-20 18:05:47.577960,-21.854
2021-03-20 18:05:47.593580,-20.47714
2021-03-20 18:05:47.609210,-19.36493
2021-03-20 18:05:47.624830,-18.57547
2021-03-20 18:05:47.640460,-17.95761
2021-03-20 18:05:47.656090,-17.20212
2021-03-20 18:05:47.671710,-15.98837
2021-03-20 18:05:47.687340,-14.07449
2021-03-20 18:05:47.702960,-11.31866
2021-03-20 18:05:47.718590,-7.701752
2021-03-20 18:05:47.734210,-3.311981
2021-03-20 18:05:47.749840,1.60553
2021-03-20 18:05:47.765470,6.685791
2021-03-20 18:05:47.781090,11.46655
2021-03-20 18:05:47.796720,15.5499
2021-03-20 18:05:47.812340,18.75479
2021-03-20 18:05:47.827970,21.15125
2021-03-20 18:05:47.843590,23.02112
2021-03-20 18:05:47.859220,24.67664
2021-03-20 18:05:47.874850,26.26776
2021-03-20 18:05:47.890470,27.65048
2021-03-20 18:05:47.906100,28.45966
2021-03-20 18:05:47.921720,28.27255
2021-03-20 18:05:47.937350,26.81781
2021-03-20 18:05:47.952970,24.13321
2021-03-20 18:05:47.968600,20.53778
2021-03-20 18:05:47.984230,16.51514
2021-03-20 18:05:47.999850,12.52383
2021-03-20 18:05:48.015480,8.866669
2021-03-20 18:05:48.031100,5.611572
2021-03-20 18:05:48.046730,2.659943
2021-03-20 18:05:48.062350,-0.1331482
2021-03-20 18:05:48.077980,-2.849213
2021-03-20 18:05:48.093610,-5.467712
2021-03-20 18:05:48.109230,-7.891693
2021-03-20 18:05:48.124860,-10.01633
2021-03-20 18:05:48.140480,-11.80658
2021-03-20 18:05:48.156110,-13.29938
2021-03-20 18:05:48.171730,-14.59851
2021-03-20 18:05:48.187360,-15.82779
2021-03-20 18:05:48.202990,-17.12262
2021-03-20 18:05:48.218610,-18.54929
2021-03-20 18:05:48.234240,-20.03964
2021-03-20 18:05:48.249860,-21.32971
2021-03-20 18:05:48.265490,-21.94495
2021-03-20 18:05:48.281110,-21.35483
2021-03-20 18:05:48.296740,-19.2352
2021-03-20 18:05:48.312370,-15.67651
2021-03-20 18:05:48.327990,-11.2749
2021-03-20 18:05:48.343620,-6.981171
2021-03-20 18:05:48.359240,-3.729095
2021-03-20 18:05:48.374870,-2.121063
2021-03-20 18:05:48.390490,-2.253448
2021-03-20 18:05:48.406120,-3.795776
2021-03-20 18:05:48.421750,-6.184998
2021-03-20 18:05:48.437370,-8.877472
2021-03-20 18:05:48.453000,-11.42902
2021-03-20 18:05:48.468620,-13.47894
2021-03-20 18:05:48.484250,-14.70029
2021-03-20 18:05:48.499870,-14.79572
2021-03-20 18:05:48.515500,-13.6228
2021-03-20 18:05:48.531130,-11.27216
2021-03-20 18:05:48.546750,-8.094788
2021-03-20 18:05:48.562380,-4.548553
2021-03-20 18:05:48.578000,-1.046265
2021-03-20 18:05:48.593630,2.185669
2021-03-20 18:05:48.609250,5.09671
2021-03-20 18:05:48.624880,7.710907
2021-03-20 18:05:48.640510,10.01035
2021-03-20 18:05:48.656130,11.90555
2021-03-20 18:05:48.671760,13.31973
2021-03-20 18:05:48.687380,14.27643
2021-03-20 18:05:48.703010,14.94861
2021-03-20 18:05:48.718630,15.57159
2021-03-20 18:05:48.734260,16.2883
2021-03-20 18:05:48.749890,17.05444
2021-03-20 18:05:48.765510,17.62314
2021-03-20 18:05:48.781140,17.71997
2021-03-20 18:05:48.796760,17.20425
2021-03-20 18:05:48.812390,16.19107
2021-03-20 18:05:48.828010,14.97202
2021-03-20 18:05:48.843640,13.86946
2021-03-20 18:05:48.859270,13.08537
2021-03-20 18:05:48.874890,12.59431
2021-03-20 18:05:48.890520,12.26283
2021-03-20 18:05:48.906140,11.90521
2021-03-20 18:05:48.921770,11.40829
2021-03-20 18:05:48.937390,10.70435
2021-03-20 18:05:48.953020,9.802521
2021-03-20 18:05:48.968650,8.729462
2021-03-20 18:05:48.984270,7.540985
2021-03-20 18:05:48.999900,6.328781
2021-03-20 18:05:49.015520,5.145889
2021-03-20 18:05:49.031150,3.976242
2021-03-20 18:05:49.046770,2.671951
2021-03-20 18:05:49.062400,1.051712
2021-03-20 18:05:49.078030,-1.020584
2021-03-20 18:05:49.093650,-3.461609
2021-03-20 18:05:49.109280,-5.991379
2021-03-20 18:05:49.124900,-8.20816
2021-03-20 18:05:49.140530,-9.812225
2021-03-20 18:05:49.156150,-10.76854
2021-03-20 18:05:49.171780,-11.35655
2021-03-20 18:05:49.187410,-12.05095
2021-03-20 18:05:49.203030,-13.32211
2021-03-20 18:05:49.218660,-15.4597
2021-03-20 18:05:49.234280,-18.44745
2021-03-20 18:05:49.249910,-21.97348
2021-03-20 18:05:49.281160,-28.3334
2021-03-20 18:05:49.296790,-29.89461
2021-03-20 18:05:49.312410,-29.74957
2021-03-20 18:05:49.328040,-27.78098
2021-03-20 18:05:49.343660,-24.21402
2021-03-20 18:05:49.359290,-19.53265
2021-03-20 18:05:49.374910,-14.3837
2021-03-20 18:05:49.390540,-9.376007
2021-03-20 18:05:49.406170,-4.967941
2021-03-20 18:05:49.421790,-1.408218
2021-03-20 18:05:49.437420,1.239853
2021-03-20 18:05:49.453040,3.020126
2021-03-20 18:05:49.468670,4.017761
2021-03-20 18:05:49.484290,4.341339
2021-03-20 18:05:49.499920,4.125778
2021-03-20 18:05:49.515550,3.563568
2021-03-20 18:05:49.531170,2.89505
2021-03-20 18:05:49.546800,2.359787
2021-03-20 18:05:49.562420,2.121658
2021-03-20 18:05:49.578050,2.190048
2021-03-20 18:05:49.593670,2.445389
2021-03-20 18:05:49.609300,2.680267
2021-03-20 18:05:49.624930,2.716599
2021-03-20 18:05:49.640550,2.495819
2021-03-20 18:05:49.656180,2.106873
2021-03-20 18:05:49.671800,1.71904
2021-03-20 18:05:49.687430,1.488647
2021-03-20 18:05:49.703050,1.493393
2021-03-20 18:05:49.718680,1.720734
2021-03-20 18:05:49.734310,2.107925
2021-03-20 18:05:49.749930,2.566742
2021-03-20 18:05:49.765560,2.991379
2021-03-20 18:05:49.781180,3.28978
2021-03-20 18:05:49.796810,3.368423
2021-03-20 18:05:49.812430,3.170105
2021-03-20 18:05:49.828060,2.736191
2021-03-20 18:05:49.843690,2.191803
2021-03-20 18:05:49.859310,1.729187
2021-03-20 18:05:49.874940,1.528641
2021-03-20 18:05:49.890560,1.658371
2021-03-20 18:05:49.906190,1.9776
2021-03-20 18:05:49.921810,2.147263
2021-03-20 18:05:49.937440,1.774933
2021-03-20 18:05:49.953070,0.6278839
2021-03-20 18:05:49.968690,-1.237869
2021-03-20 18:05:49.984320,-3.447769
2021-03-20 18:05:49.999940,-5.493958
2021-03-20 18:05:50.015570,-6.975006
2021-03-20 18:05:50.031200,-7.797577
2021-03-20 18:05:50.046820,-8.209396
2021-03-20 18:05:50.062450,-8.591614
2021-03-20 18:05:50.078070,-9.230881
2021-03-20 18:05:50.093700,-10.0912
2021-03-20 18:05:50.109320,-10.8307
2021-03-20 18:05:50.124950,-10.95677
2021-03-20 18:05:50.140580,-10.07797
2021-03-20 18:05:50.156200,-8.0616
2021-03-20 18:05:50.171830,-5.061447
2021-03-20 18:05:50.187450,-1.436996
2021-03-20 18:05:50.203080,2.393311
2021-03-20 18:05:50.218700,6.024567
2021-03-20 18:05:50.234330,9.119568
2021-03-20 18:05:50.249960,11.41876
2021-03-20 18:05:50.265580,12.79285
2021-03-20 18:05:50.281210,13.25447
2021-03-20 18:05:50.296830,12.92232
2021-03-20 18:05:50.312460,11.90535
2021-03-20 18:05:50.328080,10.29527
2021-03-20 18:05:50.343710,8.136719
2021-03-20 18:05:50.359340,5.455978
2021-03-20 18:05:50.374960,2.352097
2021-03-20 18:05:50.390590,-0.9766541
2021-03-20 18:05:50.406210,-4.234116
2021-03-20 18:05:50.421840,-7.086685
2021-03-20 18:05:50.437460,-9.240326
2021-03-20 18:05:50.453090,-10.53821
2021-03-20 18:05:50.468720,-10.9882
2021-03-20 18:05:50.484340,-10.7726
2021-03-20 18:05:50.499970,-10.17841
2021-03-20 18:05:50.515590,-9.46759
2021-03-20 18:05:50.531220,-8.801758
2021-03-20 18:05:50.546840,-8.195526
2021-03-20 18:05:50.562470,-7.564117
2021-03-20 18:05:50.578100,-6.844788
2021-03-20 18:05:50.593720,-6.076202
2021-03-20 18:05:50.609350,-5.388916
2021-03-20 18:05:50.624970,-4.944992
2021-03-20 18:05:50.640600,-4.817505
2021-03-20 18:05:50.656220,-4.927643
2021-03-20 18:05:50.671850,-5.077316
2021-03-20 18:05:50.687480,-5.045242
2021-03-20 18:05:50.703100,-4.683121
2021-03-20 18:05:50.718730,-3.960968
2021-03-20 18:05:50.734350,-2.930237
2021-03-20 18:05:50.749980,-1.68483
2021-03-20 18:05:50.765600,-0.3202972
2021-03-20 18:05:50.781230,1.052444
2021-03-20 18:05:50.796860,2.324493
2021-03-20 18:05:50.812480,3.358078
2021-03-20 18:05:50.828110,4.057495
2021-03-20 18:05:50.843730,4.3797
2021-03-20 18:05:50.859360,4.40329
2021-03-20 18:05:50.874980,4.327805
2021-03-20 18:05:50.890610,4.453156
2021-03-20 18:05:50.906240,5.098419
2021-03-20 18:05:50.921860,6.514496
2021-03-20 18:05:50.937490,8.812424
2021-03-20 18:05:50.953110,11.93378
2021-03-20 18:05:50.968740,15.67548
2021-03-20 18:05:50.984360,19.76364
2021-03-20 18:05:50.999990,23.9639
2021-03-20 18:05:51.015620,28.12888
2021-03-20 18:05:51.031240,32.17442
2021-03-20 18:05:51.046870,35.98531
2021-03-20 18:05:51.062490,39.34323
2021-03-20 18:05:51.078120,41.90717
2021-03-20 18:05:51.093740,43.27122
2021-03-20 18:05:51.109370,43.14331
2021-03-20 18:05:51.125000,41.43597
2021-03-20 18:05:51.140620,38.32686
2021-03-20 18:05:51.156250,34.20441
2021-03-20 18:05:51.171870,29.56099
2021-03-20 18:05:51.187500,24.83507
2021-03-20 18:05:51.203120,20.35365
2021-03-20 18:05:51.218750,16.26724
2021-03-20 18:05:51.234380,12.55965
2021-03-20 18:05:51.250000,9.089676
2021-03-20 18:05:51.265630,5.625534
2021-03-20 18:05:51.281250,1.916779
2021-03-20 18:05:51.296880,-2.221634
2021-03-20 18:05:51.312500,-6.858734
2021-03-20 18:05:51.328130,-11.91536
2021-03-20 18:05:51.343760,-17.19629
2021-03-20 18:05:51.359380,-22.46338
2021-03-20 18:05:51.375010,-27.52576
2021-03-20 18:05:51.390630,-32.27354
2021-03-20 18:05:51.406260,-36.67079
2021-03-20 18:05:51.421880,-40.74234
2021-03-20 18:05:51.437510,-44.49591
2021-03-20 18:05:51.453140,-47.91008
2021-03-20 18:05:51.468760,-50.93115
2021-03-20 18:05:51.484390,-53.46951
2021-03-20 18:05:51.500010,-55.40974
2021-03-20 18:05:51.515640,-56.64438
2021-03-20 18:05:51.546890,-56.59999
2021-03-20 18:05:51.562520,-55.26784
2021-03-20 18:05:51.578140,-53.15279
2021-03-20 18:05:51.593770,-50.45644
2021-03-20 18:05:51.609390,-47.44678
2021-03-20 18:05:51.625020,-44.3777
2021-03-20 18:05:51.640640,-41.4269
2021-03-20 18:05:51.656270,-38.64734
2021-03-20 18:05:51.671900,-35.92322
2021-03-20 18:05:51.687520,-33.05634
2021-03-20 18:05:51.703150,-29.79323
2021-03-20 18:05:51.718770,-25.9604
2021-03-20 18:05:51.734400,-21.50146
2021-03-20 18:05:51.750020,-16.56836
2021-03-20 18:05:51.765650,-11.47968
2021-03-20 18:05:51.781280,-6.699326
2021-03-20 18:05:51.796900,-2.716049
2021-03-20 18:05:51.812530,0.1056976
2021-03-20 18:05:51.828150,1.59758
2021-03-20 18:05:51.843780,1.858826
2021-03-20 18:05:51.859400,1.17395
2021-03-20 18:05:51.875030,-0.09458923
2021-03-20 18:05:51.890660,-1.656647
2021-03-20 18:05:51.906280,-3.326019
2021-03-20 18:05:51.921910,-5.024765
2021-03-20 18:05:51.937530,-6.633072
2021-03-20 18:05:51.953160,-7.855377
2021-03-20 18:05:51.968780,-8.220978
2021-03-20 18:05:51.984410,-7.121429
2021-03-20 18:05:52.000040,-4.020447
2021-03-20 18:05:52.015660,1.398361
2021-03-20 18:05:52.031290,9.096909
2021-03-20 18:05:52.046910,18.67711
2021-03-20 18:05:52.062540,29.45697
2021-03-20 18:05:52.078160,40.60519
2021-03-20 18:05:52.093790,51.35733
2021-03-20 18:05:52.109420,61.13033
2021-03-20 18:05:52.125040,69.65285
2021-03-20 18:05:52.140670,76.9689
2021-03-20 18:05:52.156290,83.3163
2021-03-20 18:05:52.171920,88.9398
2021-03-20 18:05:52.187550,93.84421
2021-03-20 18:05:52.203170,97.7063
2021-03-20 18:05:52.218800,99.80168
2021-03-20 18:05:52.234420,99.24951
2021-03-20 18:05:52.250050,95.20627
2021-03-20 18:05:52.265670,87.16753
2021-03-20 18:05:52.281300,75.14677
2021-03-20 18:05:52.296930,59.74353
2021-03-20 18:05:52.312550,42.05989
2021-03-20 18:05:52.328180,23.47908
2021-03-20 18:05:52.343800,5.418594
2021-03-20 18:05:52.359430,-10.93755
2021-03-20 18:05:52.375050,-24.78581
2021-03-20 18:05:52.390680,-35.77383
2021-03-20 18:05:52.406310,-43.92111
2021-03-20 18:05:52.421930,-49.49518
2021-03-20 18:05:52.437560,-52.8958
2021-03-20 18:05:52.453180,-54.54213
2021-03-20 18:05:52.468810,-54.85463
2021-03-20 18:05:52.484430,-54.15895
2021-03-20 18:05:52.500060,-52.68953
2021-03-20 18:05:52.515690,-50.53247
2021-03-20 18:05:52.531310,-47.6664
2021-03-20 18:05:52.546940,-44.03136
2021-03-20 18:05:52.562560,-39.60345
2021-03-20 18:05:52.578190,-34.50755
2021-03-20 18:05:52.593810,-29.01115
2021-03-20 18:05:52.609440,-23.48453
2021-03-20 18:05:52.640690,-13.67821
2021-03-20 18:05:52.656320,-9.808105
2021-03-20 18:05:52.671940,-6.683014
2021-03-20 18:05:52.687570,-4.278091
2021-03-20 18:05:52.703190,-2.566895
2021-03-20 18:05:52.718820,-1.641022
2021-03-20 18:05:52.734450,-1.677094
2021-03-20 18:05:52.750070,-2.857208
2021-03-20 18:05:52.765700,-5.223587
2021-03-20 18:05:52.781320,-8.527069
2021-03-20 18:05:52.796950,-12.09694
2021-03-20 18:05:52.812570,-14.9117
2021-03-20 18:05:52.828200,-15.84085
2021-03-20 18:05:52.843830,-13.98947
2021-03-20 18:05:52.859450,-9.059265
2021-03-20 18:05:52.875080,-1.523804
2021-03-20 18:05:52.890700,7.469223
2021-03-20 18:05:52.906330,16.45338
2021-03-20 18:05:52.921950,24.12091
2021-03-20 18:05:52.937580,29.74936
2021-03-20 18:05:52.953210,33.40385
2021-03-20 18:05:52.968830,35.75906
2021-03-20 18:05:52.984460,37.7645
2021-03-20 18:05:53.000080,40.21213
2021-03-20 18:05:53.015710,43.44472
2021-03-20 18:05:53.031330,47.25578
2021-03-20 18:05:53.046960,50.98891
2021-03-20 18:05:53.062590,53.68324
2021-03-20 18:05:53.078210,54.26788
2021-03-20 18:05:53.093840,51.7681
2021-03-20 18:05:53.109460,45.53101
2021-03-20 18:05:53.125090,35.57858
2021-03-20 18:05:53.140710,22.75357
2021-03-20 18:05:53.156340,8.674042
2021-03-20 18:05:53.171970,-4.653717
2021-03-20 18:05:53.187590,-15.47351
2021-03-20 18:05:53.203220,-22.83687
2021-03-20 18:05:53.218840,-26.86841
2021-03-20 18:05:53.234470,-28.57448
2021-03-20 18:05:53.250090,-29.30453
2021-03-20 18:05:53.265720,-30.09984
2021-03-20 18:05:53.281350,-31.32715
2021-03-20 18:05:53.296970,-32.63374
2021-03-20 18:05:53.312600,-33.24699
2021-03-20 18:05:53.328220,-32.3889
2021-03-20 18:05:53.343850,-29.59932
2021-03-20 18:05:53.359470,-24.84267
2021-03-20 18:05:53.375100,-18.44759
2021-03-20 18:05:53.390730,-11.00932
2021-03-20 18:05:53.406350,-3.169281
2021-03-20 18:05:53.421980,4.492386
2021-03-20 18:05:53.437600,11.58682
2021-03-20 18:05:53.453230,18.01344
2021-03-20 18:05:53.468850,23.9913
2021-03-20 18:05:53.484480,29.93719
2021-03-20 18:05:53.500110,36.28679
2021-03-20 18:05:53.515730,43.28476
2021-03-20 18:05:53.531360,50.75606
2021-03-20 18:05:53.546980,58.12744
2021-03-20 18:05:53.562610,64.554
2021-03-20 18:05:53.578230,69.20459
2021-03-20 18:05:53.593860,71.55458
2021-03-20 18:05:53.609490,71.57726
2021-03-20 18:05:53.625110,69.75392
2021-03-20 18:05:53.640740,66.94952
2021-03-20 18:05:53.656360,64.1044
2021-03-20 18:05:53.671990,61.9842
2021-03-20 18:05:53.687610,60.96386
2021-03-20 18:05:53.703240,61.01642
2021-03-20 18:05:53.718870,61.81898
2021-03-20 18:05:53.734490,63.0181
2021-03-20 18:05:53.750120,64.41084
2021-03-20 18:05:53.765740,65.95935
2021-03-20 18:05:53.781370,67.67223
2021-03-20 18:05:53.796990,69.32052
2021-03-20 18:05:53.812620,70.29696
2021-03-20 18:05:53.828250,69.69646
2021-03-20 18:05:53.843870,66.62714
2021-03-20 18:05:53.859500,60.56274
2021-03-20 18:05:53.875120,51.59495
2021-03-20 18:05:53.890750,40.34488
2021-03-20 18:05:53.906370,27.79224
2021-03-20 18:05:53.922000,15.01691
2021-03-20 18:05:53.937630,3.049713
2021-03-20 18:05:53.953250,-7.204317
2021-03-20 18:05:53.968880,-15.02788
2021-03-20 18:05:53.984500,-19.9667
2021-03-20 18:05:54.000130,-21.97305
2021-03-20 18:05:54.015750,-21.39239
2021-03-20 18:05:54.031380,-18.89034
2021-03-20 18:05:54.047010,-15.2171
2021-03-20 18:05:54.062630,-10.96214
2021-03-20 18:05:54.078260,-6.464382
2021-03-20 18:05:54.093880,-1.892834
2021-03-20 18:05:54.109510,2.536644
2021-03-20 18:05:54.125130,6.396675
2021-03-20 18:05:54.140760,9.044449
2021-03-20 18:05:54.156390,9.839218
2021-03-20 18:05:54.172010,8.495697
2021-03-20 18:05:54.187640,5.293518
2021-03-20 18:05:54.203260,1.163986
2021-03-20 18:05:54.218890,-2.632729
2021-03-20 18:05:54.234510,-4.89061
2021-03-20 18:05:54.250140,-4.942215
2021-03-20 18:05:54.265770,-2.899597
2021-03-20 18:05:54.281390,0.4212036
2021-03-20 18:05:54.297020,3.808319
2021-03-20 18:05:54.312640,6.1026
2021-03-20 18:05:54.328270,6.543884
2021-03-20 18:05:54.343890,4.874054
2021-03-20 18:05:54.359520,1.219376
2021-03-20 18:05:54.375150,-4.078857
2021-03-20 18:05:54.390770,-10.73915
2021-03-20 18:05:54.406400,-18.61243
2021-03-20 18:05:54.422020,-27.72957
2021-03-20 18:05:54.437650,-38.17387
2021-03-20 18:05:54.453270,-49.87486
2021-03-20 18:05:54.468900,-62.41118
2021-03-20 18:05:54.484530,-74.88123
2021-03-20 18:05:54.500150,-85.9671
2021-03-20 18:05:54.515780,-94.20102
2021-03-20 18:05:54.531400,-98.40573
2021-03-20 18:05:54.547030,-98.07111
2021-03-20 18:05:54.562650,-93.53641
2021-03-20 18:05:54.578280,-85.87994
2021-03-20 18:05:54.593910,-76.53735
2021-03-20 18:05:54.609530,-66.84882
2021-03-20 18:05:54.625160,-57.70172
2021-03-20 18:05:54.640780,-49.43002
2021-03-20 18:05:54.656410,-41.88608
2021-03-20 18:05:54.672030,-34.67838
2021-03-20 18:05:54.687660,-27.40146
2021-03-20 18:05:54.703290,-19.79071
2021-03-20 18:05:54.718910,-11.76706
2021-03-20 18:05:54.734540,-3.347412
2021-03-20 18:05:54.750160,5.406372
2021-03-20 18:05:54.765790,14.5022
2021-03-20 18:05:54.781410,24.04324
2021-03-20 18:05:54.797040,34.22928
2021-03-20 18:05:54.812670,45.30087
2021-03-20 18:05:54.828290,57.47729
2021-03-20 18:05:54.843920,70.91119
2021-03-20 18:05:54.859540,85.63391
2021-03-20 18:05:54.875170,101.5644
2021-03-20 18:05:54.890800,118.4894
2021-03-20 18:05:54.906420,136.1235
2021-03-20 18:05:54.922050,154.0901
2021-03-20 18:05:54.937670,171.9463
2021-03-20 18:05:54.953300,189.1524
2021-03-20 18:05:54.968920,205.0944
2021-03-20 18:05:54.984550,219.1086
2021-03-20 18:05:55.000180,230.5865
2021-03-20 18:05:55.015800,239.0711
2021-03-20 18:05:55.031430,244.2729
2021-03-20 18:05:55.047050,245.9655
2021-03-20 18:05:55.062680,243.7841
2021-03-20 18:05:55.078300,237.1042
2021-03-20 18:05:55.093930,225.0406
2021-03-20 18:05:55.109560,206.7216
2021-03-20 18:05:55.125180,181.6632
2021-03-20 18:05:55.140810,150.0507
2021-03-20 18:05:55.156430,112.7432
2021-03-20 18:05:55.172060,71.02124
2021-03-20 18:05:55.187680,26.33246
2021-03-20 18:05:55.203310,-19.82898
2021-03-20 18:05:55.218940,-65.76361
2021-03-20 18:05:55.234560,-109.3246
2021-03-20 18:05:55.250190,-147.9926
2021-03-20 18:05:55.265810,-179.2334
2021-03-20 18:05:55.281440,-201.1872
2021-03-20 18:05:55.297060,-213.2362
2021-03-20 18:05:55.312690,-216.1582
2021-03-20 18:05:55.328320,-211.6923
2021-03-20 18:05:55.343940,-201.8619
2021-03-20 18:05:55.359570,-188.4125
2021-03-20 18:05:55.375190,-172.6469
2021-03-20 18:05:55.390820,-155.7408
2021-03-20 18:05:55.406440,-139.0413
2021-03-20 18:05:55.422070,-124.1832
2021-03-20 18:05:55.437700,-112.7087
2021-03-20 18:05:55.453320,-105.5616
2021-03-20 18:05:55.468950,-102.6547
2021-03-20 18:05:55.484570,-102.9477
2021-03-20 18:05:55.500200,-104.9199
2021-03-20 18:05:55.515820,-107.1353
2021-03-20 18:05:55.531450,-108.6117
2021-03-20 18:05:55.547080,-108.8
2021-03-20 18:05:55.562700,-107.3383
2021-03-20 18:05:55.578330,-103.754
2021-03-20 18:05:55.593950,-97.47058
2021-03-20 18:05:55.609580,-88.04395
2021-03-20 18:05:55.625200,-75.49438
2021-03-20 18:05:55.640830,-60.45044
2021-03-20 18:05:55.656460,-43.98975
2021-03-20 18:05:55.672080,-27.31396
2021-03-20 18:05:55.687710,-11.35266
2021-03-20 18:05:55.703330,3.388184
2021-03-20 18:05:55.718960,16.73816
2021-03-20 18:05:55.734580,28.64685
2021-03-20 18:05:55.750210,38.88074
2021-03-20 18:05:55.765840,46.94495
2021-03-20 18:05:55.781460,52.0697
2021-03-20 18:05:55.797090,53.39758
2021-03-20 18:05:55.812710,50.15955
2021-03-20 18:05:55.828340,41.83081
2021-03-20 18:05:55.843960,28.19189
2021-03-20 18:05:55.859590,9.323364
2021-03-20 18:05:55.875220,-14.36401
2021-03-20 18:05:55.890840,-42.01074
2021-03-20 18:05:55.906470,-72.04907
2021-03-20 18:05:55.922090,-102.1415
2021-03-20 18:05:55.937720,-129.3273
2021-03-20 18:05:55.953340,-150.6534
2021-03-20 18:05:55.968970,-163.9705
2021-03-20 18:05:55.984600,-168.6193
2021-03-20 18:05:56.000220,-165.6276
2021-03-20 18:05:56.015850,-157.2621
2021-03-20 18:05:56.031470,-146.1531
2021-03-20 18:05:56.047100,-134.3943
2021-03-20 18:05:56.062720,-123.1331
2021-03-20 18:05:56.078350,-112.6029
2021-03-20 18:05:56.093980,-102.5791
2021-03-20 18:05:56.109600,-92.81006
2021-03-20 18:05:56.125230,-83.2439
2021-03-20 18:05:56.140850,-73.94739
2021-03-20 18:05:56.156480,-64.93188
2021-03-20 18:05:56.172100,-56.11523
2021-03-20 18:05:56.187730,-47.32251
2021-03-20 18:05:56.203360,-38.47058
2021-03-20 18:05:56.218980,-29.57739
2021-03-20 18:05:56.234610,-20.62366
2021-03-20 18:05:56.250230,-11.3678
2021-03-20 18:05:56.265860,-1.255737
2021-03-20 18:05:56.281480,10.4718
2021-03-20 18:05:56.297110,24.34399
2021-03-20 18:05:56.312740,40.15906
2021-03-20 18:05:56.328360,56.65149
2021-03-20 18:05:56.343990,71.48071
2021-03-20 18:05:56.359610,81.72754
2021-03-20 18:05:56.375240,84.64978
2021-03-20 18:05:56.390860,78.47412
2021-03-20 18:05:56.406490,62.92664
2021-03-20 18:05:56.422120,39.33105
2021-03-20 18:05:56.437740,10.255
2021-03-20 18:05:56.453370,-21.09387
2021-03-20 18:05:56.468990,-51.49133
2021-03-20 18:05:56.484620,-78.25854
2021-03-20 18:05:56.500240,-99.53882
2021-03-20 18:05:56.515870,-114.4188
2021-03-20 18:05:56.531500,-122.9017
2021-03-20 18:05:56.547120,-125.683
2021-03-20 18:05:56.562750,-123.9216
2021-03-20 18:05:56.578370,-118.9615
2021-03-20 18:05:56.594000,-112.0552
2021-03-20 18:05:56.609620,-104.1511
2021-03-20 18:05:56.625250,-95.79773
2021-03-20 18:05:56.640880,-87.19238
2021-03-20 18:05:56.656500,-78.26147
2021-03-20 18:05:56.672130,-68.9408
2021-03-20 18:05:56.687750,-59.28601
2021-03-20 18:05:56.703380,-49.59143
2021-03-20 18:05:56.719000,-40.33752
2021-03-20 18:05:56.734630,-32.05127
2021-03-20 18:05:56.750260,-25.14929
2021-03-20 18:05:56.765880,-19.81433
2021-03-20 18:05:56.781510,-16.02466
2021-03-20 18:05:56.797130,-13.55786
2021-03-20 18:05:56.812760,-12.15198
2021-03-20 18:05:56.828380,-11.51978
2021-03-20 18:05:56.844010,-11.45886
2021-03-20 18:05:56.859640,-11.83691
2021-03-20 18:05:56.875260,-12.56445
2021-03-20 18:05:56.890890,-13.53174
2021-03-20 18:05:56.906510,-14.51416
2021-03-20 18:05:56.922140,-15.08923
2021-03-20 18:05:56.937760,-14.63464
2021-03-20 18:05:56.953390,-12.4978
2021-03-20 18:05:56.969020,-8.184265
2021-03-20 18:05:56.984640,-1.613647
2021-03-20 18:05:57.000270,6.80426
2021-03-20 18:05:57.015890,16.27295
2021-03-20 18:05:57.031520,25.82446
2021-03-20 18:05:57.047140,34.62512
2021-03-20 18:05:57.062770,42.19482
2021-03-20 18:05:57.078400,48.44745
2021-03-20 18:05:57.094020,53.54694
2021-03-20 18:05:57.109650,57.71161
2021-03-20 18:05:57.125270,61.02039
2021-03-20 18:05:57.140900,63.31219
2021-03-20 18:05:57.156530,64.26526
2021-03-20 18:05:57.172150,63.52148
2021-03-20 18:05:57.203400,56.62933
2021-03-20 18:05:57.219030,51.18939
2021-03-20 18:05:57.234650,45.38452
2021-03-20 18:05:57.250280,40.02557
2021-03-20 18:05:57.265910,35.69653
2021-03-20 18:05:57.281530,32.61688
2021-03-20 18:05:57.297160,30.67352
2021-03-20 18:05:57.312780,29.55011
2021-03-20 18:05:57.328410,28.93433
2021-03-20 18:05:57.344030,28.56854
2021-03-20 18:05:57.359660,28.25623
2021-03-20 18:05:57.375290,27.74377
2021-03-20 18:05:57.390910,26.67816
2021-03-20 18:05:57.406540,24.64502
2021-03-20 18:05:57.422160,21.3241
2021-03-20 18:05:57.437790,16.65643
2021-03-20 18:05:57.453410,10.93756
2021-03-20 18:05:57.469040,4.747864
2021-03-20 18:05:57.484670,-1.24292
2021-03-20 18:05:57.500290,-6.486145
2021-03-20 18:05:57.515920,-10.70361
2021-03-20 18:05:57.531540,-13.86823
2021-03-20 18:05:57.547170,-16.14478
2021-03-20 18:05:57.562790,-17.77643
2021-03-20 18:05:57.578420,-18.99963
2021-03-20 18:05:57.594050,-20.04517
2021-03-20 18:05:57.609670,-21.10431
2021-03-20 18:05:57.625300,-22.29877
2021-03-20 18:05:57.640920,-23.56897
2021-03-20 18:05:57.656550,-24.62634
2021-03-20 18:05:57.672170,-24.93866
2021-03-20 18:05:57.687800,-23.84827
2021-03-20 18:05:57.703430,-20.8363
2021-03-20 18:05:57.719050,-15.74396
2021-03-20 18:05:57.734680,-8.912415
2021-03-20 18:05:57.750300,-1.11554
2021-03-20 18:05:57.765930,6.664551
2021-03-20 18:05:57.781550,13.54559
2021-03-20 18:05:57.797180,18.97961
2021-03-20 18:05:57.812810,22.86011
2021-03-20 18:05:57.828430,25.45184
2021-03-20 18:05:57.844060,27.18304
2021-03-20 18:05:57.859680,28.47058
2021-03-20 18:05:57.875310,29.5451
2021-03-20 18:05:57.890930,30.4577
2021-03-20 18:05:57.906560,31.12262
2021-03-20 18:05:57.922190,31.46954
2021-03-20 18:05:57.937810,31.4917
2021-03-20 18:05:57.953440,31.3031
2021-03-20 18:05:57.969060,31.08588
2021-03-20 18:05:57.984690,30.99896
2021-03-20 18:05:58.000310,31.13989
2021-03-20 18:05:58.015940,31.50519
2021-03-20 18:05:58.031570,32.0282
2021-03-20 18:05:58.047190,32.63501
2021-03-20 18:05:58.062820,33.2785
2021-03-20 18:05:58.078440,33.9491
2021-03-20 18:05:58.094070,34.60101
2021-03-20 18:05:58.109690,35.12219
2021-03-20 18:05:58.125320,35.27875
2021-03-20 18:05:58.140950,34.82593
2021-03-20 18:05:58.156570,33.57617
2021-03-20 18:05:58.172200,31.53864
2021-03-20 18:05:58.187820,28.94391
2021-03-20 18:05:58.203450,26.16388
2021-03-20 18:05:58.219070,23.56091
2021-03-20 18:05:58.234700,21.32751
2021-03-20 18:05:58.250330,19.40405
2021-03-20 18:05:58.265950,17.49615
2021-03-20 18:05:58.281580,15.27026
2021-03-20 18:05:58.297200,12.46228
2021-03-20 18:05:58.312830,9.033875
2021-03-20 18:05:58.328450,5.137085
2021-03-20 18:05:58.344080,1.016907
2021-03-20 18:05:58.359710,-3.088196
2021-03-20 18:05:58.375330,-7.039063
2021-03-20 18:05:58.390960,-10.76062
2021-03-20 18:05:58.422210,-17.48987
2021-03-20 18:05:58.437830,-20.5752
2021-03-20 18:05:58.453460,-23.612
2021-03-20 18:05:58.469090,-26.6936
2021-03-20 18:05:58.484710,-29.76349
2021-03-20 18:05:58.500340,-32.48871
2021-03-20 18:05:58.515960,-34.24997
2021-03-20 18:05:58.531590,-34.31387
2021-03-20 18:05:58.547210,-32.11435
2021-03-20 18:05:58.562840,-27.5549
2021-03-20 18:05:58.578470,-21.11673
2021-03-20 18:05:58.594090,-13.73312
2021-03-20 18:05:58.609720,-6.470947
2021-03-20 18:05:58.625340,-0.2023315
2021-03-20 18:05:58.640970,4.641876
2021-03-20 18:05:58.656590,8.063568
2021-03-20 18:05:58.672220,10.3718
2021-03-20 18:05:58.687850,11.9617
2021-03-20 18:05:58.703470,13.1369
2021-03-20 18:05:58.719100,14.03583
2021-03-20 18:05:58.734720,14.65158
2021-03-20 18:05:58.750350,14.88678
2021-03-20 18:05:58.765970,14.63446
2021-03-20 18:05:58.781600,13.90729
2021-03-20 18:05:58.797230,12.81427
2021-03-20 18:05:58.812850,11.58368
2021-03-20 18:05:58.828480,10.45746
2021-03-20 18:05:58.844100,9.598419
2021-03-20 18:05:58.859730,9.033356
2021-03-20 18:05:58.875350,8.670288
2021-03-20 18:05:58.890980,8.401978
2021-03-20 18:05:58.906610,8.143768
2021-03-20 18:05:58.922230,7.894684
2021-03-20 18:05:58.937860,7.68457
2021-03-20 18:05:58.953480,7.493347
2021-03-20 18:05:58.969110,7.213654
2021-03-20 18:05:58.984730,6.671722
2021-03-20 18:05:59.000360,5.693817
2021-03-20 18:05:59.015990,4.196167
2021-03-20 18:05:59.031610,2.193237
2021-03-20 18:05:59.047240,-0.2030029
2021-03-20 18:05:59.062860,-2.898865
2021-03-20 18:05:59.078490,-5.860504
2021-03-20 18:05:59.094110,-9.113434
2021-03-20 18:05:59.109740,-12.68643
2021-03-20 18:05:59.125370,-16.54318
2021-03-20 18:05:59.140990,-20.57202
2021-03-20 18:05:59.156620,-24.59888
2021-03-20 18:05:59.172240,-28.47897
2021-03-20 18:05:59.187870,-32.11432
2021-03-20 18:05:59.203490,-35.50235
2021-03-20 18:05:59.219120,-38.68518
2021-03-20 18:05:59.234750,-41.67319
2021-03-20 18:05:59.250370,-44.3262
2021-03-20 18:05:59.266000,-46.26541
2021-03-20 18:05:59.281620,-46.87802
2021-03-20 18:05:59.297250,-45.45837
2021-03-20 18:05:59.312880,-41.46167
2021-03-20 18:05:59.328500,-34.74091
2021-03-20 18:05:59.344130,-25.70419
2021-03-20 18:05:59.359750,-15.2673
2021-03-20 18:05:59.375380,-4.615631
2021-03-20 18:05:59.391000,5.155609
2021-03-20 18:05:59.406630,13.29526
2021-03-20 18:05:59.422260,19.52927
2021-03-20 18:05:59.437880,23.9946
2021-03-20 18:05:59.453510,27.02551
2021-03-20 18:05:59.484760,30.19513
2021-03-20 18:05:59.500380,30.82397
2021-03-20 18:05:59.516010,30.99475
2021-03-20 18:05:59.531640,30.78775
2021-03-20 18:05:59.547260,30.26666
2021-03-20 18:05:59.562890,29.47595
2021-03-20 18:05:59.578510,28.47595
2021-03-20 18:05:59.594140,27.31891
2021-03-20 18:05:59.609760,26.0853
2021-03-20 18:05:59.625390,24.87448
2021-03-20 18:05:59.641020,23.7673
2021-03-20 18:05:59.656640,22.84027
2021-03-20 18:05:59.672270,22.18472
2021-03-20 18:05:59.687890,21.87488
2021-03-20 18:05:59.703520,21.98607
2021-03-20 18:05:59.719140,22.54816
2021-03-20 18:05:59.734770,23.45242
2021-03-20 18:05:59.750400,24.46104
2021-03-20 18:05:59.766020,25.2359
2021-03-20 18:05:59.781650,25.43271
2021-03-20 18:05:59.797270,24.82312
2021-03-20 18:05:59.812900,23.40968
2021-03-20 18:05:59.828520,21.40173
2021-03-20 18:05:59.844150,19.1346
2021-03-20 18:05:59.859780,16.90616
2021-03-20 18:05:59.875400,14.8573
2021-03-20 18:05:59.891030,12.95459
2021-03-20 18:05:59.906650,11.03775
2021-03-20 18:05:59.922280,8.959656
2021-03-20 18:05:59.937900,6.65657
2021-03-20 18:05:59.953530,4.194046
2021-03-20 18:05:59.969160,1.688141
2021-03-20 18:05:59.984780,-0.7256012
2021-03-20 18:06:00.000410,-2.961136
2021-03-20 18:06:00.016030,-4.998886
2021-03-20 18:06:00.031660,-6.853424
2021-03-20 18:06:00.047280,-8.593658
2021-03-20 18:06:00.062910,-10.36427
2021-03-20 18:06:00.078540,-12.38496
2021-03-20 18:06:00.094160,-14.9662
2021-03-20 18:06:00.109790,-18.36046
2021-03-20 18:06:00.125410,-22.55365
2021-03-20 18:06:00.141040,-27.10925
2021-03-20 18:06:00.156660,-31.16255
2021-03-20 18:06:00.172290,-33.60341
2021-03-20 18:06:00.187920,-33.49635
2021-03-20 18:06:00.203540,-30.38771
2021-03-20 18:06:00.219170,-24.50073
2021-03-20 18:06:00.234790,-16.68282
2021-03-20 18:06:00.250420,-8.121948
2021-03-20 18:06:00.266040,0.04510498
2021-03-20 18:06:00.281670,7.006943
2021-03-20 18:06:00.297300,12.41406
2021-03-20 18:06:00.312920,16.32393
2021-03-20 18:06:00.328550,19.02441
2021-03-20 18:06:00.344170,20.85971
2021-03-20 18:06:00.359800,22.12611
2021-03-20 18:06:00.375420,23.0006
2021-03-20 18:06:00.391050,23.57448
2021-03-20 18:06:00.406680,23.87764
2021-03-20 18:06:00.422300,23.91792
2021-03-20 18:06:00.437930,23.73222
2021-03-20 18:06:00.453550,23.38591
2021-03-20 18:06:00.469180,22.96378
2021-03-20 18:06:00.484800,22.55397
2021-03-20 18:06:00.500430,22.22823
2021-03-20 18:06:00.516060,22.02953
2021-03-20 18:06:00.531680,21.97937
2021-03-20 18:06:00.547310,22.07003
2021-03-20 18:06:00.562930,22.24162
2021-03-20 18:06:00.578560,22.42082
2021-03-20 18:06:00.594180,22.53158
2021-03-20 18:06:00.609810,22.52431
2021-03-20 18:06:00.625440,22.37511
2021-03-20 18:06:00.641060,22.08905
2021-03-20 18:06:00.672310,20.91389
2021-03-20 18:06:00.687940,19.84705
2021-03-20 18:06:00.703560,18.33585
2021-03-20 18:06:00.719190,16.36649
2021-03-20 18:06:00.734820,14.0323
2021-03-20 18:06:00.750440,11.5219
2021-03-20 18:06:00.766070,9.046364
2021-03-20 18:06:00.781690,6.758636
2021-03-20 18:06:00.797320,4.697533
2021-03-20 18:06:00.812940,2.789551
2021-03-20 18:06:00.828570,0.901947
2021-03-20 18:06:00.844200,-1.069885
2021-03-20 18:06:00.859820,-3.163933
2021-03-20 18:06:00.875450,-5.344032
2021-03-20 18:06:00.891070,-7.524277
2021-03-20 18:06:00.906700,-9.608345
2021-03-20 18:06:00.922320,-11.56745
2021-03-20 18:06:00.937950,-13.3941
2021-03-20 18:06:00.953580,-15.14342
2021-03-20 18:06:00.969200,-16.91975
2021-03-20 18:06:00.984830,-18.87215
2021-03-20 18:06:01.000450,-21.17445
2021-03-20 18:06:01.016080,-23.93854
2021-03-20 18:06:01.031700,-27.07728
2021-03-20 18:06:01.047330,-30.17474
2021-03-20 18:06:01.062960,-32.51591
2021-03-20 18:06:01.078580,-33.21236
2021-03-20 18:06:01.094210,-31.48009
2021-03-20 18:06:01.109830,-26.95372
2021-03-20 18:06:01.125460,-19.86495
2021-03-20 18:06:01.141080,-10.96293
2021-03-20 18:06:01.156710,-1.32592
2021-03-20 18:06:01.172340,7.992416
2021-03-20 18:06:01.187960,16.17995
2021-03-20 18:06:01.203590,22.75621
2021-03-20 18:06:01.219210,27.57389
2021-03-20 18:06:01.234840,30.68043
2021-03-20 18:06:01.250460,32.25039
2021-03-20 18:06:01.266090,32.51662
2021-03-20 18:06:01.281720,31.76957
2021-03-20 18:06:01.297340,30.34843
2021-03-20 18:06:01.312970,28.62144
2021-03-20 18:06:01.328590,26.90034
2021-03-20 18:06:01.344220,25.38911
2021-03-20 18:06:01.359840,24.19202
2021-03-20 18:06:01.375470,23.27802
2021-03-20 18:06:01.391100,22.56465
2021-03-20 18:06:01.406720,21.95422
2021-03-20 18:06:01.422350,21.33601
2021-03-20 18:06:01.437970,20.60806
2021-03-20 18:06:01.453600,19.6642
2021-03-20 18:06:01.469220,18.39902
2021-03-20 18:06:01.484850,16.74721
2021-03-20 18:06:01.500480,14.70179
2021-03-20 18:06:01.516100,12.32898
2021-03-20 18:06:01.531730,9.700729
2021-03-20 18:06:01.547350,6.897957
2021-03-20 18:06:01.562980,3.914207
2021-03-20 18:06:01.578600,0.6854019
2021-03-20 18:06:01.594230,-2.839272
2021-03-20 18:06:01.609860,-6.602592
2021-03-20 18:06:01.625480,-10.45301
2021-03-20 18:06:01.641110,-14.11789
2021-03-20 18:06:01.656730,-17.34151
2021-03-20 18:06:01.672360,-19.94733
2021-03-20 18:06:01.687980,-21.90329
2021-03-20 18:06:01.703610,-23.30038
2021-03-20 18:06:01.719240,-24.30898
2021-03-20 18:06:01.734860,-25.07258
2021-03-20 18:06:01.750490,-25.63423
2021-03-20 18:06:01.766110,-25.96912
2021-03-20 18:06:01.781740,-25.98941
2021-03-20 18:06:01.797360,-25.64486
2021-03-20 18:06:01.812990,-24.93326
2021-03-20 18:06:01.828620,-23.88362
2021-03-20 18:06:01.844240,-22.59502
2021-03-20 18:06:01.859870,-21.16964
2021-03-20 18:06:01.875490,-19.74757
2021-03-20 18:06:01.891120,-18.50122
2021-03-20 18:06:01.906740,-17.638
2021-03-20 18:06:01.922370,-17.30323
2021-03-20 18:06:01.938000,-17.4812
2021-03-20 18:06:01.953620,-17.86268
2021-03-20 18:06:01.969250,-17.83205
2021-03-20 18:06:01.984870,-16.62091
2021-03-20 18:06:02.000500,-13.53602
2021-03-20 18:06:02.016130,-8.257107
2021-03-20 18:06:02.031750,-0.9890137
2021-03-20 18:06:02.047380,7.575993
2021-03-20 18:06:02.063000,16.50667
2021-03-20 18:06:02.078630,24.90138
2021-03-20 18:06:02.094250,32.12241
2021-03-20 18:06:02.109880,37.89375
2021-03-20 18:06:02.125510,42.18554
2021-03-20 18:06:02.141130,45.12079
2021-03-20 18:06:02.156760,46.8015
2021-03-20 18:06:02.172380,47.26349
2021-03-20 18:06:02.188010,46.4765
2021-03-20 18:06:02.203630,44.45251
2021-03-20 18:06:02.219260,41.2958
2021-03-20 18:06:02.234890,37.26364
2021-03-20 18:06:02.250510,32.73161
2021-03-20 18:06:02.266140,28.08338
2021-03-20 18:06:02.281760,23.67928
2021-03-20 18:06:02.297390,19.71721
2021-03-20 18:06:02.313010,16.26757
2021-03-20 18:06:02.328640,13.28786
2021-03-20 18:06:02.344270,10.70452
2021-03-20 18:06:02.359890,8.464214
2021-03-20 18:06:02.375520,6.553497
2021-03-20 18:06:02.391140,4.959824
2021-03-20 18:06:02.406770,3.590855
2021-03-20 18:06:02.422390,2.270767
2021-03-20 18:06:02.438020,0.7481651
2021-03-20 18:06:02.453650,-1.202621
2021-03-20 18:06:02.469270,-3.673485
2021-03-20 18:06:02.484900,-6.567394
2021-03-20 18:06:02.500520,-9.61977
2021-03-20 18:06:02.516150,-12.51208
2021-03-20 18:06:02.531770,-14.96224
2021-03-20 18:06:02.547400,-16.84209
2021-03-20 18:06:02.563030,-18.14579
2021-03-20 18:06:02.578650,-18.99089
2021-03-20 18:06:02.594280,-19.52471
2021-03-20 18:06:02.609900,-19.87702
2021-03-20 18:06:02.625530,-20.12408
2021-03-20 18:06:02.641150,-20.2707
2021-03-20 18:06:02.656780,-20.26041
2021-03-20 18:06:02.672410,-19.9555
2021-03-20 18:06:02.688030,-19.1793
2021-03-20 18:06:02.703660,-17.75587
2021-03-20 18:06:02.719280,-15.57819
2021-03-20 18:06:02.734910,-12.68387
2021-03-20 18:06:02.750530,-9.299191
2021-03-20 18:06:02.766160,-5.879745
2021-03-20 18:06:02.781790,-3.021988
2021-03-20 18:06:02.797410,-1.313702
2021-03-20 18:06:02.828660,-2.247509
2021-03-20 18:06:02.844290,-4.22665
2021-03-20 18:06:02.859910,-6.08622
2021-03-20 18:06:02.875540,-6.833027
2021-03-20 18:06:02.891170,-5.75687
2021-03-20 18:06:02.906790,-2.707176
2021-03-20 18:06:02.922420,1.878323
2021-03-20 18:06:02.938040,7.103657
2021-03-20 18:06:02.953670,11.95372
2021-03-20 18:06:02.969290,15.54555
2021-03-20 18:06:02.984920,17.34313
2021-03-20 18:06:03.000550,17.19925
2021-03-20 18:06:03.016170,15.2829
2021-03-20 18:06:03.031800,12.00051
2021-03-20 18:06:03.047420,7.847752
2021-03-20 18:06:03.063050,3.355198
2021-03-20 18:06:03.078670,-1.031147
2021-03-20 18:06:03.094300,-4.974091
2021-03-20 18:06:03.109930,-8.2915
2021-03-20 18:06:03.125550,-10.88931
2021-03-20 18:06:03.141180,-12.67783
2021-03-20 18:06:03.156800,-13.53431
2021-03-20 18:06:03.172430,-13.28518
2021-03-20 18:06:03.188050,-11.8009
2021-03-20 18:06:03.203680,-9.082886
2021-03-20 18:06:03.219310,-5.388844
2021-03-20 18:06:03.234930,-1.163101
2021-03-20 18:06:03.250560,3.023224
2021-03-20 18:06:03.266180,6.637737
2021-03-20 18:06:03.281810,9.249649
2021-03-20 18:06:03.297430,10.60175
2021-03-20 18:06:03.313060,10.59224
2021-03-20 18:06:03.328690,9.254139
2021-03-20 18:06:03.344310,6.739655
2021-03-20 18:06:03.359940,3.321991
2021-03-20 18:06:03.375560,-0.5855026
2021-03-20 18:06:03.391190,-4.511463
2021-03-20 18:06:03.406810,-7.983044
2021-03-20 18:06:03.422440,-10.64776
2021-03-20 18:06:03.438070,-12.38893
2021-03-20 18:06:03.453690,-13.34342
2021-03-20 18:06:03.469320,-13.905
2021-03-20 18:06:03.484940,-14.61579
2021-03-20 18:06:03.500570,-16.05481
2021-03-20 18:06:03.516190,-18.66235
2021-03-20 18:06:03.531820,-22.64077
2021-03-20 18:06:03.547450,-27.93623
2021-03-20 18:06:03.563070,-34.25875
2021-03-20 18:06:03.578700,-41.1733
2021-03-20 18:06:03.594320,-48.11337
2021-03-20 18:06:03.609950,-54.42662
2021-03-20 18:06:03.625570,-59.41222
2021-03-20 18:06:03.641200,-62.38886
2021-03-20 18:06:03.656830,-62.82281
2021-03-20 18:06:03.672450,-60.43323
2021-03-20 18:06:03.688080,-55.29276
2021-03-20 18:06:03.703700,-47.81315
2021-03-20 18:06:03.719330,-38.65394
2021-03-20 18:06:03.734950,-28.57636
2021-03-20 18:06:03.750580,-18.32507
2021-03-20 18:06:03.766210,-8.52354
2021-03-20 18:06:03.781830,0.3249998
2021-03-20 18:06:03.797460,7.879064
2021-03-20 18:06:03.813080,13.94308
2021-03-20 18:06:03.828710,18.47984
2021-03-20 18:06:03.844330,21.59489
2021-03-20 18:06:03.859960,23.48722
2021-03-20 18:06:03.875590,24.4422
2021-03-20 18:06:03.891210,24.7752
2021-03-20 18:06:03.906840,24.8176
2021-03-20 18:06:03.922460,24.81866
2021-03-20 18:06:03.938090,24.87465
2021-03-20 18:06:03.953710,24.87894
2021-03-20 18:06:03.969340,24.54387
2021-03-20 18:06:03.984970,23.52637
2021-03-20 18:06:04.000590,21.61435
2021-03-20 18:06:04.016220,18.85596
2021-03-20 18:06:04.031840,15.57239
2021-03-20 18:06:04.047470,12.24619
2021-03-20 18:06:04.063090,9.338783
2021-03-20 18:06:04.078720,7.10194
2021-03-20 18:06:04.094350,5.521057
2021-03-20 18:06:04.109970,4.388344
2021-03-20 18:06:04.125600,3.448902
2021-03-20 18:06:04.141220,2.558067
2021-03-20 18:06:04.156850,1.709118
2021-03-20 18:06:04.172480,1.006084
2021-03-20 18:06:04.188100,0.5281677
2021-03-20 18:06:04.203730,0.2318649
2021-03-20 18:06:04.219350,-0.09988403
2021-03-20 18:06:04.234980,-0.8336792
2021-03-20 18:06:04.250600,-2.36924
2021-03-20 18:06:04.266230,-4.989487
2021-03-20 18:06:04.281860,-8.776901
2021-03-20 18:06:04.297480,-13.5063
2021-03-20 18:06:04.313110,-18.65429
2021-03-20 18:06:04.328730,-23.42625
2021-03-20 18:06:04.344360,-26.92922
2021-03-20 18:06:04.359980,-28.33823
2021-03-20 18:06:04.375610,-27.09431
2021-03-20 18:06:04.391240,-23.08778
2021-03-20 18:06:04.406860,-16.66661
2021-03-20 18:06:04.422490,-8.601723
2021-03-20 18:06:04.438110,0.1057739
2021-03-20 18:06:04.453740,8.418068
2021-03-20 18:06:04.469360,15.53476
2021-03-20 18:06:04.484990,20.98361
2021-03-20 18:06:04.500620,24.70543
2021-03-20 18:06:04.516240,26.97266
2021-03-20 18:06:04.531870,28.22594
2021-03-20 18:06:04.547490,28.87655
2021-03-20 18:06:04.563120,29.16954
2021-03-20 18:06:04.578740,29.17601
2021-03-20 18:06:04.594370,28.83868
2021-03-20 18:06:04.610000,28.1113
2021-03-20 18:06:04.625620,27.04791
2021-03-20 18:06:04.641250,25.79996
2021-03-20 18:06:04.656870,24.54581
2021-03-20 18:06:04.672500,23.44612
2021-03-20 18:06:04.688120,22.59793
2021-03-20 18:06:04.703750,22.03796
2021-03-20 18:06:04.719380,21.79657
2021-03-20 18:06:04.735000,21.84467
2021-03-20 18:06:04.750630,22.08632
2021-03-20 18:06:04.766250,22.33783
2021-03-20 18:06:04.781880,22.34749
2021-03-20 18:06:04.797500,21.90079
2021-03-20 18:06:04.813130,20.83557
2021-03-20 18:06:04.828760,19.1546
2021-03-20 18:06:04.844380,16.93671
2021-03-20 18:06:04.860010,14.31337
2021-03-20 18:06:04.875630,11.39545
2021-03-20 18:06:04.891260,8.281357
2021-03-20 18:06:04.906880,5.051987
2021-03-20 18:06:04.922510,1.808792
2021-03-20 18:06:04.938140,-1.307709
2021-03-20 18:06:04.953760,-4.178055
2021-03-20 18:06:04.969390,-6.665253
2021-03-20 18:06:04.985010,-8.695343
2021-03-20 18:06:05.000640,-10.25632
2021-03-20 18:06:05.016260,-11.44547
2021-03-20 18:06:05.047520,-13.6595
2021-03-20 18:06:05.063140,-15.28864
2021-03-20 18:06:05.078770,-17.46265
2021-03-20 18:06:05.094390,-19.95959
2021-03-20 18:06:05.110020,-22.17751
2021-03-20 18:06:05.125640,-23.30672
2021-03-20 18:06:05.141270,-22.54971
2021-03-20 18:06:05.156900,-19.4577
2021-03-20 18:06:05.172520,-14.09668
2021-03-20 18:06:05.188150,-7.055481
2021-03-20 18:06:05.203770,0.7489319
2021-03-20 18:06:05.219400,8.316177
2021-03-20 18:06:05.235020,14.82642
2021-03-20 18:06:05.250650,19.78633
2021-03-20 18:06:05.266280,23.03494
2021-03-20 18:06:05.281900,24.70612
2021-03-20 18:06:05.297530,25.14804
2021-03-20 18:06:05.313150,24.84253
2021-03-20 18:06:05.328780,24.31425
2021-03-20 18:06:05.344400,24.04343
2021-03-20 18:06:05.360030,24.3134
2021-03-20 18:06:05.375660,25.16762
2021-03-20 18:06:05.391280,26.41693
2021-03-20 18:06:05.406910,27.71605
2021-03-20 18:06:05.422530,28.71602
2021-03-20 18:06:05.438160,29.15866
2021-03-20 18:06:05.453780,28.92104
2021-03-20 18:06:05.469410,27.98959
2021-03-20 18:06:05.485040,26.42575
2021-03-20 18:06:05.500660,24.30089
2021-03-20 18:06:05.516290,21.71727
2021-03-20 18:06:05.531910,18.81731
2021-03-20 18:06:05.547540,15.73149
2021-03-20 18:06:05.563160,12.60919
2021-03-20 18:06:05.578790,9.583115
2021-03-20 18:06:05.594420,6.790619
2021-03-20 18:06:05.610040,4.4104
2021-03-20 18:06:05.625670,2.629272
2021-03-20 18:06:05.641290,1.614944
2021-03-20 18:06:05.656920,1.442917
2021-03-20 18:06:05.672540,2.020752
2021-03-20 18:06:05.688170,3.065063
2021-03-20 18:06:05.703800,4.167892
2021-03-20 18:06:05.719420,4.867218
2021-03-20 18:06:05.735050,4.755234
2021-03-20 18:06:05.750670,3.587036
2021-03-20 18:06:05.766300,1.309723
2021-03-20 18:06:05.781920,-1.915131
2021-03-20 18:06:05.797550,-5.800751
2021-03-20 18:06:05.813180,-10.02283
2021-03-20 18:06:05.828800,-14.36565
2021-03-20 18:06:05.844430,-18.78194
2021-03-20 18:06:05.860050,-23.41296
2021-03-20 18:06:05.875680,-28.41882
2021-03-20 18:06:05.891300,-33.76215
2021-03-20 18:06:05.906930,-39.04388
2021-03-20 18:06:05.922560,-43.49666
2021-03-20 18:06:05.938180,-46.19527
2021-03-20 18:06:05.953810,-46.42389
2021-03-20 18:06:05.969430,-43.98921
2021-03-20 18:06:05.985060,-39.35329
2021-03-20 18:06:06.000680,-33.52206
2021-03-20 18:06:06.016310,-27.68935
2021-03-20 18:06:06.031940,-22.84782
2021-03-20 18:06:06.047560,-19.53285
2021-03-20 18:06:06.063190,-17.72015
2021-03-20 18:06:06.078810,-16.98018
2021-03-20 18:06:06.094440,-16.713
2021-03-20 18:06:06.110060,-16.39651
2021-03-20 18:06:06.125690,-15.71812
2021-03-20 18:06:06.141320,-14.62479
2021-03-20 18:06:06.156940,-13.2359
2021-03-20 18:06:06.172570,-11.75513
2021-03-20 18:06:06.188190,-10.37425
2021-03-20 18:06:06.203820,-9.168427
2021-03-20 18:06:06.219440,-8.092865
2021-03-20 18:06:06.250700,-5.758713
2021-03-20 18:06:06.266320,-4.215759
2021-03-20 18:06:06.281950,-2.334137
2021-03-20 18:06:06.297570,-0.1279449
2021-03-20 18:06:06.313200,2.304123
2021-03-20 18:06:06.328820,4.779846
2021-03-20 18:06:06.344450,7.065186
2021-03-20 18:06:06.360080,8.88623
2021-03-20 18:06:06.375700,10.00299
2021-03-20 18:06:06.391330,10.28212
2021-03-20 18:06:06.406950,9.761063
2021-03-20 18:06:06.422580,8.642441
2021-03-20 18:06:06.438210,7.241211
2021-03-20 18:06:06.453830,5.857285
2021-03-20 18:06:06.469460,4.654739
2021-03-20 18:06:06.485080,3.644394
2021-03-20 18:06:06.500710,2.697235
2021-03-20 18:06:06.516330,1.677139
2021-03-20 18:06:06.531960,0.5659332
2021-03-20 18:06:06.547590,-0.504303
2021-03-20 18:06:06.563210,-1.291016
2021-03-20 18:06:06.578840,-1.556091
2021-03-20 18:06:06.594460,-1.186569
2021-03-20 18:06:06.610090,-0.2912292
2021-03-20 18:06:06.625710,0.7996674
2021-03-20 18:06:06.641340,1.597046
2021-03-20 18:06:06.656970,1.58139
2021-03-20 18:06:06.672590,0.380722
2021-03-20 18:06:06.688220,-2.078491
2021-03-20 18:06:06.703840,-5.443741
2021-03-20 18:06:06.719470,-8.933273
2021-03-20 18:06:06.735090,-11.48837
2021-03-20 18:06:06.750720,-12.09171
2021-03-20 18:06:06.766350,-10.09346
2021-03-20 18:06:06.781970,-5.487289
2021-03-20 18:06:06.797600,1.112305
2021-03-20 18:06:06.813220,8.689148
2021-03-20 18:06:06.828850,16.22516
2021-03-20 18:06:06.844470,23.00848
2021-03-20 18:06:06.860100,28.76607
2021-03-20 18:06:06.875730,33.56711
2021-03-20 18:06:06.891350,37.58597
2021-03-20 18:06:06.906980,40.93265
2021-03-20 18:06:06.922600,43.54509
2021-03-20 18:06:06.938230,45.28159
2021-03-20 18:06:06.953850,46.02695
2021-03-20 18:06:06.969480,45.78471
2021-03-20 18:06:06.985110,44.71297
2021-03-20 18:06:07.000730,43.03648
2021-03-20 18:06:07.016360,40.99304
2021-03-20 18:06:07.031980,38.74802
2021-03-20 18:06:07.047610,36.39752
2021-03-20 18:06:07.063230,33.97552
2021-03-20 18:06:07.078860,31.50623
2021-03-20 18:06:07.094490,29.04601
2021-03-20 18:06:07.110110,26.71503
2021-03-20 18:06:07.125740,24.65431
2021-03-20 18:06:07.141360,22.96658
2021-03-20 18:06:07.156990,21.63571
2021-03-20 18:06:07.172610,20.51144
2021-03-20 18:06:07.188240,19.36005
2021-03-20 18:06:07.203870,17.97221
2021-03-20 18:06:07.219490,16.2435
2021-03-20 18:06:07.235120,14.18802
2021-03-20 18:06:07.250740,11.90462
2021-03-20 18:06:07.266370,9.506149
2021-03-20 18:06:07.281990,7.07811
2021-03-20 18:06:07.297620,4.712021
2021-03-20 18:06:07.313250,2.509033
2021-03-20 18:06:07.328870,0.5849304
2021-03-20 18:06:07.344500,-0.9959412
2021-03-20 18:06:07.360120,-2.310959
2021-03-20 18:06:07.375750,-3.593018
2021-03-20 18:06:07.407000,-7.196518
2021-03-20 18:06:07.422630,-9.712112
2021-03-20 18:06:07.438250,-12.42319
2021-03-20 18:06:07.453880,-14.89418
2021-03-20 18:06:07.469500,-16.78049
2021-03-20 18:06:07.485130,-17.99159
2021-03-20 18:06:07.500750,-18.73216
2021-03-20 18:06:07.516380,-19.38979
2021-03-20 18:06:07.532010,-20.36339
2021-03-20 18:06:07.547630,-21.87538
2021-03-20 18:06:07.563260,-23.90961
2021-03-20 18:06:07.578880,-26.19714
2021-03-20 18:06:07.594510,-28.28024
2021-03-20 18:06:07.610130,-29.58354
2021-03-20 18:06:07.625760,-29.55655
2021-03-20 18:06:07.641390,-27.80226
2021-03-20 18:06:07.657010,-24.21394
2021-03-20 18:06:07.672640,-19.06042
2021-03-20 18:06:07.688260,-12.97362
2021-03-20 18:06:07.703890,-6.750946
2021-03-20 18:06:07.719510,-1.132675
2021-03-20 18:06:07.735140,3.388504
2021-03-20 18:06:07.750770,6.700073
2021-03-20 18:06:07.766390,8.98999
2021-03-20 18:06:07.782020,10.57573
2021-03-20 18:06:07.797640,11.78419
2021-03-20 18:06:07.813270,12.80278
2021-03-20 18:06:07.828890,13.67296
2021-03-20 18:06:07.844520,14.34422
2021-03-20 18:06:07.860150,14.75393
2021-03-20 18:06:07.875770,14.84544
2021-03-20 18:06:07.891400,14.63053
2021-03-20 18:06:07.907020,14.17743
2021-03-20 18:06:07.922650,13.61122
2021-03-20 18:06:07.938270,13.05093
2021-03-20 18:06:07.953900,12.61093
2021-03-20 18:06:07.969530,12.35191
2021-03-20 18:06:07.985150,12.27453
2021-03-20 18:06:08.000780,12.35884
2021-03-20 18:06:08.016400,12.53205
2021-03-20 18:06:08.032030,12.73328
2021-03-20 18:06:08.047650,12.88583
2021-03-20 18:06:08.063280,12.90482
2021-03-20 18:06:08.078910,12.71375
2021-03-20 18:06:08.094530,12.22806
2021-03-20 18:06:08.110160,11.38599
2021-03-20 18:06:08.125780,10.13573
2021-03-20 18:06:08.141410,8.468506
2021-03-20 18:06:08.157030,6.417122
2021-03-20 18:06:08.172660,4.117523
2021-03-20 18:06:08.188290,1.726273
2021-03-20 18:06:08.203910,-0.5899734
2021-03-20 18:06:08.219540,-2.705978
2021-03-20 18:06:08.235160,-4.609894
2021-03-20 18:06:08.250790,-6.363419
2021-03-20 18:06:08.266410,-8.048775
2021-03-20 18:06:08.282040,-9.699875
2021-03-20 18:06:08.297670,-11.24331
2021-03-20 18:06:08.313290,-12.50632
2021-03-20 18:06:08.328920,-13.28477
2021-03-20 18:06:08.344540,-13.47701
2021-03-20 18:06:08.360170,-13.15385
2021-03-20 18:06:08.375790,-12.58877
2021-03-20 18:06:08.391420,-12.182
2021-03-20 18:06:08.407050,-12.35611
2021-03-20 18:06:08.422670,-13.38895
2021-03-20 18:06:08.438300,-15.3157
2021-03-20 18:06:08.453920,-17.84632
2021-03-20 18:06:08.469550,-20.42329
2021-03-20 18:06:08.485170,-22.33757
2021-03-20 18:06:08.500800,-22.88719
2021-03-20 18:06:08.516430,-21.59746
2021-03-20 18:06:08.532050,-18.34771
2021-03-20 18:06:08.547680,-13.42511
2021-03-20 18:06:08.563300,-7.426521
2021-03-20 18:06:08.578930,-1.082222
2021-03-20 18:06:08.610180,10.17453
2021-03-20 18:06:08.625810,14.41616
2021-03-20 18:06:08.641430,17.6718
2021-03-20 18:06:08.657060,20.0369
2021-03-20 18:06:08.672680,21.61735
2021-03-20 18:06:08.688310,22.49256
2021-03-20 18:06:08.703930,22.7368
2021-03-20 18:06:08.719560,22.4834
2021-03-20 18:06:08.735190,21.92305
2021-03-20 18:06:08.750810,21.27547
2021-03-20 18:06:08.766440,20.72448
2021-03-20 18:06:08.782060,20.3609
2021-03-20 18:06:08.797690,20.17616
2021-03-20 18:06:08.813310,20.0486
2021-03-20 18:06:08.828940,19.80481
2021-03-20 18:06:08.844570,19.27413
2021-03-20 18:06:08.860190,18.30524
2021-03-20 18:06:08.875820,16.88045
2021-03-20 18:06:08.891440,15.19017
2021-03-20 18:06:08.907070,13.6419
2021-03-20 18:06:08.922690,12.7759
2021-03-20 18:06:08.938320,13.06589
2021-03-20 18:06:08.953950,14.68417
2021-03-20 18:06:08.969570,17.38388
2021-03-20 18:06:08.985200,20.57759
2021-03-20 18:06:09.000820,23.53684
2021-03-20 18:06:09.016450,25.64372
2021-03-20 18:06:09.032080,26.55619
2021-03-20 18:06:09.047700,26.14017
2021-03-20 18:06:09.063330,24.39426
2021-03-20 18:06:09.078950,21.35198
2021-03-20 18:06:09.094580,17.08025
2021-03-20 18:06:09.110200,11.8043
2021-03-20 18:06:09.125830,6.00544
2021-03-20 18:06:09.141460,0.4161224
2021-03-20 18:06:09.157080,-4.107895
2021-03-20 18:06:09.172710,-6.793312
2021-03-20 18:06:09.188330,-7.176605
2021-03-20 18:06:09.203960,-5.203079
2021-03-20 18:06:09.219580,-1.250954
2021-03-20 18:06:09.235210,3.975906
2021-03-20 18:06:09.250840,9.573227
2021-03-20 18:06:09.266460,14.60287
2021-03-20 18:06:09.282090,18.25689
2021-03-20 18:06:09.297710,20.02226
2021-03-20 18:06:09.313340,19.83102
2021-03-20 18:06:09.328960,18.01807
2021-03-20 18:06:09.344590,15.29044
2021-03-20 18:06:09.360220,12.45786
2021-03-20 18:06:09.375840,10.21321
2021-03-20 18:06:09.391470,8.925583
2021-03-20 18:06:09.407090,8.525436
2021-03-20 18:06:09.422720,8.588181
2021-03-20 18:06:09.438340,8.537735
2021-03-20 18:06:09.453970,7.90567
2021-03-20 18:06:09.469600,6.477203
2021-03-20 18:06:09.485220,4.342239
2021-03-20 18:06:09.500850,1.748947
2021-03-20 18:06:09.516470,-1.051865
2021-03-20 18:06:09.532100,-3.91983
2021-03-20 18:06:09.547720,-6.870804
2021-03-20 18:06:09.563350,-9.983795
2021-03-20 18:06:09.578980,-13.31834
2021-03-20 18:06:09.594600,-16.83224
2021-03-20 18:06:09.610230,-20.41882
2021-03-20 18:06:09.625850,-23.88971
2021-03-20 18:06:09.641480,-27.08479
2021-03-20 18:06:09.657100,-29.87746
2021-03-20 18:06:09.672730,-32.22839
2021-03-20 18:06:09.688360,-34.17546
2021-03-20 18:06:09.703980,-35.76494
2021-03-20 18:06:09.719610,-37.05865
2021-03-20 18:06:09.735230,-38.05429
2021-03-20 18:06:09.750860,-38.70129
2021-03-20 18:06:09.766480,-38.8931
2021-03-20 18:06:09.782110,-38.54233
2021-03-20 18:06:09.797740,-37.62561
2021-03-20 18:06:09.813360,-36.24774
2021-03-20 18:06:09.828990,-34.60481
2021-03-20 18:06:09.844610,-32.9108
2021-03-20 18:06:09.860240,-31.33203
2021-03-20 18:06:09.875860,-29.91348
2021-03-20 18:06:09.891490,-28.58517
2021-03-20 18:06:09.907120,-27.1962
2021-03-20 18:06:09.922740,-25.63666
2021-03-20 18:06:09.938370,-23.90311
2021-03-20 18:06:09.953990,-22.11935
2021-03-20 18:06:09.969620,-20.49536
2021-03-20 18:06:09.985240,-19.24225
2021-03-20 18:06:10.000870,-18.49771
2021-03-20 18:06:10.016500,-18.28448
2021-03-20 18:06:10.032120,-18.52838
2021-03-20 18:06:10.047750,-19.07211
2021-03-20 18:06:10.063370,-19.74448
2021-03-20 18:06:10.079000,-20.38348
2021-03-20 18:06:10.094620,-20.84171
2021-03-20 18:06:10.110250,-21.0585
2021-03-20 18:06:10.125880,-21.05661
2021-03-20 18:06:10.141500,-21.0134
2021-03-20 18:06:10.157130,-21.189
2021-03-20 18:06:10.172750,-21.90549
2021-03-20 18:06:10.188380,-23.36862
2021-03-20 18:06:10.204000,-25.54578
2021-03-20 18:06:10.219630,-28.06573
2021-03-20 18:06:10.235260,-30.2637
2021-03-20 18:06:10.250880,-31.34381
2021-03-20 18:06:10.266510,-30.65738
2021-03-20 18:06:10.282130,-27.95142
2021-03-20 18:06:10.297760,-23.49155
2021-03-20 18:06:10.313380,-18.0191
2021-03-20 18:06:10.329010,-12.47427
2021-03-20 18:06:10.344640,-7.712433
2021-03-20 18:06:10.360260,-4.270172
2021-03-20 18:06:10.375890,-2.291626
2021-03-20 18:06:10.391510,-1.619873
2021-03-20 18:06:10.407140,-1.95224
2021-03-20 18:06:10.422760,-2.975922
2021-03-20 18:06:10.438390,-4.423065
2021-03-20 18:06:10.454020,-6.103516
2021-03-20 18:06:10.469640,-7.850952
2021-03-20 18:06:10.485270,-9.540466
2021-03-20 18:06:10.500890,-11.10648
2021-03-20 18:06:10.516520,-12.55298
2021-03-20 18:06:10.532140,-13.9339
2021-03-20 18:06:10.547770,-15.33264
2021-03-20 18:06:10.563400,-16.8038
2021-03-20 18:06:10.579020,-18.32886
2021-03-20 18:06:10.594650,-19.7905
2021-03-20 18:06:10.610270,-20.96707
2021-03-20 18:06:10.625900,-21.55292
2021-03-20 18:06:10.641520,-21.26718
2021-03-20 18:06:10.657150,-19.91724
2021-03-20 18:06:10.672780,-17.49091
2021-03-20 18:06:10.688400,-14.18735
2021-03-20 18:06:10.704030,-10.34869
2021-03-20 18:06:10.719650,-6.389313
2021-03-20 18:06:10.735280,-2.687561
2021-03-20 18:06:10.750900,0.5249329
2021-03-20 18:06:10.766530,3.181976
2021-03-20 18:06:10.782160,5.342957
2021-03-20 18:06:10.797780,7.109344
2021-03-20 18:06:10.813410,8.530273
2021-03-20 18:06:10.829030,9.552094
2021-03-20 18:06:10.844660,10.07162
2021-03-20 18:06:10.860280,10.01025
2021-03-20 18:06:10.875910,9.416229
2021-03-20 18:06:10.891540,8.514374
2021-03-20 18:06:10.907160,7.659698
2021-03-20 18:06:10.922790,7.23175
2021-03-20 18:06:10.938410,7.49472
2021-03-20 18:06:10.954040,8.46756
2021-03-20 18:06:10.969660,9.893921
2021-03-20 18:06:10.985290,11.3808
2021-03-20 18:06:11.000920,12.53299
2021-03-20 18:06:11.016540,13.12564
2021-03-20 18:06:11.032170,13.15674
2021-03-20 18:06:11.047790,12.77617
2021-03-20 18:06:11.063420,12.15106
2021-03-20 18:06:11.079040,11.35909
2021-03-20 18:06:11.094670,10.32623
2021-03-20 18:06:11.110300,8.875977
2021-03-20 18:06:11.125920,6.868347
2021-03-20 18:06:11.141550,4.269928
2021-03-20 18:06:11.157170,1.191635
2021-03-20 18:06:11.172800,-2.209991
2021-03-20 18:06:11.188420,-5.780441
2021-03-20 18:06:11.204050,-9.362183
2021-03-20 18:06:11.219680,-12.72122
2021-03-20 18:06:11.235300,-15.45576
2021-03-20 18:06:11.250930,-17.01039
2021-03-20 18:06:11.266550,-16.81145
2021-03-20 18:06:11.282180,-14.53583
2021-03-20 18:06:11.297810,-10.2847
2021-03-20 18:06:11.313430,-4.647995
2021-03-20 18:06:11.329060,1.492081
2021-03-20 18:06:11.344680,7.270737
2021-03-20 18:06:11.360310,12.10445
2021-03-20 18:06:11.375930,15.82558
2021-03-20 18:06:11.391560,18.58566
2021-03-20 18:06:11.407190,20.68373
2021-03-20 18:06:11.422810,22.35863
2021-03-20 18:06:11.438440,23.68298
2021-03-20 18:06:11.454060,24.59517
2021-03-20 18:06:11.469690,24.99469
2021-03-20 18:06:11.485310,24.85631
2021-03-20 18:06:11.500940,24.25166
2021-03-20 18:06:11.516570,23.3739
2021-03-20 18:06:11.532190,22.42671
2021-03-20 18:06:11.547820,21.56323
2021-03-20 18:06:11.563440,20.83623
2021-03-20 18:06:11.579070,20.23587
2021-03-20 18:06:11.594690,19.7301
2021-03-20 18:06:11.610320,19.3329
2021-03-20 18:06:11.625950,19.11676
2021-03-20 18:06:11.641570,19.13737
2021-03-20 18:06:11.657200,19.40353
2021-03-20 18:06:11.672820,19.78619
2021-03-20 18:06:11.688450,20.03873
2021-03-20 18:06:11.704070,19.90579
2021-03-20 18:06:11.719700,19.23976
2021-03-20 18:06:11.735330,18.0721
2021-03-20 18:06:11.750950,16.60547
2021-03-20 18:06:11.766580,15.08554
2021-03-20 18:06:11.782200,13.64757
2021-03-20 18:06:11.797830,12.28709
2021-03-20 18:06:11.813450,10.84917
2021-03-20 18:06:11.829080,9.142883
2021-03-20 18:06:11.844710,7.093536
2021-03-20 18:06:11.860330,4.7724
2021-03-20 18:06:11.875960,2.398331
2021-03-20 18:06:11.891580,0.2129211
2021-03-20 18:06:11.907210,-1.602386
2021-03-20 18:06:11.922830,-2.980103
2021-03-20 18:06:11.938460,-3.944305
2021-03-20 18:06:11.954090,-4.609543
2021-03-20 18:06:11.969710,-5.115738
2021-03-20 18:06:11.985340,-5.608917
2021-03-20 18:06:12.000960,-6.240295
2021-03-20 18:06:12.016590,-7.12114
2021-03-20 18:06:12.047840,-9.671051
2021-03-20 18:06:12.063470,-11.14473
2021-03-20 18:06:12.079090,-12.51752
2021-03-20 18:06:12.094720,-13.65495
2021-03-20 18:06:12.110340,-14.51768
2021-03-20 18:06:12.125970,-15.17593
2021-03-20 18:06:12.141590,-15.80087
2021-03-20 18:06:12.157220,-16.63342
2021-03-20 18:06:12.172850,-17.89984
2021-03-20 18:06:12.188470,-19.76227
2021-03-20 18:06:12.204100,-22.20842
2021-03-20 18:06:12.219720,-24.94098
2021-03-20 18:06:12.235350,-27.38322
2021-03-20 18:06:12.250970,-28.7821
2021-03-20 18:06:12.266600,-28.39935
2021-03-20 18:06:12.282230,-25.83174
2021-03-20 18:06:12.297850,-21.14507
2021-03-20 18:06:12.313480,-14.89973
2021-03-20 18:06:12.329100,-7.988754
2021-03-20 18:06:12.344730,-1.341476
2021-03-20 18:06:12.360350,4.337585
2021-03-20 18:06:12.375980,8.681625
2021-03-20 18:06:12.391610,11.64954
2021-03-20 18:06:12.407230,13.41301
2021-03-20 18:06:12.422860,14.20895
2021-03-20 18:06:12.438480,14.28816
2021-03-20 18:06:12.454110,13.86946
2021-03-20 18:06:12.469730,13.12788
2021-03-20 18:06:12.485360,12.2058
2021-03-20 18:06:12.500990,11.19472
2021-03-20 18:06:12.516610,10.1492
2021-03-20 18:06:12.532240,9.103012
2021-03-20 18:06:12.547860,8.136154
2021-03-20 18:06:12.563490,7.321503
2021-03-20 18:06:12.579110,6.784805
2021-03-20 18:06:12.594740,6.634705
2021-03-20 18:06:12.610370,6.930328
2021-03-20 18:06:12.625990,7.640961
2021-03-20 18:06:12.641620,8.659668
2021-03-20 18:06:12.657240,9.797028
2021-03-20 18:06:12.672870,10.87708
2021-03-20 18:06:12.688490,11.77736
2021-03-20 18:06:12.704120,12.41827
2021-03-20 18:06:12.719750,12.78831
2021-03-20 18:06:12.735370,12.89247
2021-03-20 18:06:12.751000,12.73027
2021-03-20 18:06:12.766620,12.28784
2021-03-20 18:06:12.782250,11.57175
2021-03-20 18:06:12.797870,10.57976
2021-03-20 18:06:12.813500,9.363617
2021-03-20 18:06:12.829130,7.98819
2021-03-20 18:06:12.844750,6.509827
2021-03-20 18:06:12.860380,4.993118
2021-03-20 18:06:12.876000,3.458511
