Datetime,value
BVP
2021-05-26 15:53:06.866240,29.71698
2021-05-26 15:53:06.881860,37.11426
2021-05-26 15:53:06.897490,42.42389
2021-05-26 15:53:06.913110,45.65723
2021-05-26 15:53:06.928740,47.1178
2021-05-26 15:53:06.944360,47.26245
2021-05-26 15:53:06.959990,46.59064
2021-05-26 15:53:06.975620,45.57202
2021-05-26 15:53:06.991240,44.54285
2021-05-26 15:53:07.006870,43.73792
2021-05-26 15:53:07.022490,43.30115
2021-05-26 15:53:07.038120,43.30725
2021-05-26 15:53:07.053740,43.67871
2021-05-26 15:53:07.069370,44.22247
2021-05-26 15:53:07.085000,44.59125
2021-05-26 15:53:07.100620,44.40692
2021-05-26 15:53:07.116250,43.36115
2021-05-26 15:53:07.131870,41.32788
2021-05-26 15:53:07.147500,38.44427
2021-05-26 15:53:07.163120,34.99768
2021-05-26 15:53:07.178750,31.29346
2021-05-26 15:53:07.194380,27.492
2021-05-26 15:53:07.210000,23.50336
2021-05-26 15:53:07.225630,19.08521
2021-05-26 15:53:07.241250,14.06213
2021-05-26 15:53:07.256880,8.46582
2021-05-26 15:53:07.272500,2.57666
2021-05-26 15:53:07.288130,-3.175659
2021-05-26 15:53:07.303760,-8.4505
2021-05-26 15:53:07.319380,-13.18176
2021-05-26 15:53:07.335010,-17.61462
2021-05-26 15:53:07.350630,-22.21515
2021-05-26 15:53:07.366260,-27.47742
2021-05-26 15:53:07.381880,-33.67358
2021-05-26 15:53:07.397510,-40.68304
2021-05-26 15:53:07.413140,-47.92975
2021-05-26 15:53:07.428760,-54.45526
2021-05-26 15:53:07.444390,-59.09271
2021-05-26 15:53:07.460010,-60.73779
2021-05-26 15:53:07.475640,-58.66974
2021-05-26 15:53:07.491260,-52.80157
2021-05-26 15:53:07.506890,-43.73718
2021-05-26 15:53:07.522520,-32.67578
2021-05-26 15:53:07.538140,-21.01044
2021-05-26 15:53:07.553770,-9.986267
2021-05-26 15:53:07.569390,-0.4216919
2021-05-26 15:53:07.585020,7.360107
2021-05-26 15:53:07.600640,13.42352
2021-05-26 15:53:07.616270,17.95709
2021-05-26 15:53:07.631900,21.13654
2021-05-26 15:53:07.647520,23.05542
2021-05-26 15:53:07.663150,23.77557
2021-05-26 15:53:07.678770,23.45801
2021-05-26 15:53:07.694400,22.43726
2021-05-26 15:53:07.710020,21.255
2021-05-26 15:53:07.725650,20.51129
2021-05-26 15:53:07.741280,20.72729
2021-05-26 15:53:07.756900,22.12634
2021-05-26 15:53:07.772530,24.52618
2021-05-26 15:53:07.788150,27.37787
2021-05-26 15:53:07.803780,29.91687
2021-05-26 15:53:07.819400,31.39868
2021-05-26 15:53:07.835030,31.35944
2021-05-26 15:53:07.850660,29.75189
2021-05-26 15:53:07.866280,26.8645
2021-05-26 15:53:07.881910,23.15552
2021-05-26 15:53:07.897530,19.02209
2021-05-26 15:53:07.913160,14.7052
2021-05-26 15:53:07.928780,10.27948
2021-05-26 15:53:07.944410,5.700317
2021-05-26 15:53:07.960040,0.8982544
2021-05-26 15:53:07.975660,-4.200134
2021-05-26 15:53:07.991290,-9.714844
2021-05-26 15:53:08.006910,-15.71295
2021-05-26 15:53:08.038160,-28.62097
2021-05-26 15:53:08.053790,-34.28619
2021-05-26 15:53:08.069420,-37.9621
2021-05-26 15:53:08.085040,-38.44183
2021-05-26 15:53:08.100670,-34.9953
2021-05-26 15:53:08.116290,-27.66907
2021-05-26 15:53:08.131920,-17.4046
2021-05-26 15:53:08.147540,-5.731689
2021-05-26 15:53:08.163170,5.695923
2021-05-26 15:53:08.178800,15.58746
2021-05-26 15:53:08.194420,23.2757
2021-05-26 15:53:08.210050,28.67053
2021-05-26 15:53:08.225670,32.03601
2021-05-26 15:53:08.241300,33.72064
2021-05-26 15:53:08.256920,33.99872
2021-05-26 15:53:08.272550,33.10535
2021-05-26 15:53:08.288180,31.31958
2021-05-26 15:53:08.303800,29.10138
2021-05-26 15:53:08.319430,27.0199
2021-05-26 15:53:08.335050,25.59894
2021-05-26 15:53:08.350680,25.10693
2021-05-26 15:53:08.366300,25.45935
2021-05-26 15:53:08.381930,26.28961
2021-05-26 15:53:08.397560,27.12146
2021-05-26 15:53:08.413180,27.58954
2021-05-26 15:53:08.428810,27.60925
2021-05-26 15:53:08.444430,27.28113
2021-05-26 15:53:08.460060,26.74133
2021-05-26 15:53:08.475690,25.99463
2021-05-26 15:53:08.491310,24.80322
2021-05-26 15:53:08.506940,22.78223
2021-05-26 15:53:08.522560,19.60242
2021-05-26 15:53:08.538190,15.19922
2021-05-26 15:53:08.553810,9.812134
2021-05-26 15:53:08.569440,3.93396
2021-05-26 15:53:08.585070,-1.885864
2021-05-26 15:53:08.600690,-7.248291
2021-05-26 15:53:08.616320,-12.01038
2021-05-26 15:53:08.631940,-16.36475
2021-05-26 15:53:08.647570,-20.7334
2021-05-26 15:53:08.663190,-25.65137
2021-05-26 15:53:08.678820,-31.5791
2021-05-26 15:53:08.694450,-38.6792
2021-05-26 15:53:08.710070,-46.61951
2021-05-26 15:53:08.725700,-54.46851
2021-05-26 15:53:08.741320,-60.77222
2021-05-26 15:53:08.756950,-63.92249
2021-05-26 15:53:08.772570,-62.61279
2021-05-26 15:53:08.788200,-56.41003
2021-05-26 15:53:08.803830,-45.8678
2021-05-26 15:53:08.819450,-32.5061
2021-05-26 15:53:08.835080,-18.25195
2021-05-26 15:53:08.850700,-4.88562
2021-05-26 15:53:08.866330,6.432739
2021-05-26 15:53:08.881950,15.32385
2021-05-26 15:53:08.897580,21.98499
2021-05-26 15:53:08.913210,26.88293
2021-05-26 15:53:08.928830,30.41919
2021-05-26 15:53:08.944460,32.87366
2021-05-26 15:53:08.960080,34.36853
2021-05-26 15:53:08.975710,35.11743
2021-05-26 15:53:08.991330,35.46155
2021-05-26 15:53:09.006960,35.854
2021-05-26 15:53:09.022590,36.69922
2021-05-26 15:53:09.038210,38.23071
2021-05-26 15:53:09.053840,40.4082
2021-05-26 15:53:09.069460,42.94458
2021-05-26 15:53:09.085090,45.42578
2021-05-26 15:53:09.100710,47.47339
2021-05-26 15:53:09.116340,48.82874
2021-05-26 15:53:09.131970,49.44116
2021-05-26 15:53:09.147590,49.37268
2021-05-26 15:53:09.163220,48.75708
2021-05-26 15:53:09.178840,47.65479
2021-05-26 15:53:09.194470,46.07959
2021-05-26 15:53:09.210090,43.9718
2021-05-26 15:53:09.225720,41.28809
2021-05-26 15:53:09.256970,34.20349
2021-05-26 15:53:09.272600,30.02246
2021-05-26 15:53:09.288220,25.68457
2021-05-26 15:53:09.303850,21.42786
2021-05-26 15:53:09.319470,17.46045
2021-05-26 15:53:09.335100,13.91675
2021-05-26 15:53:09.350730,10.75073
2021-05-26 15:53:09.366350,7.772705
2021-05-26 15:53:09.381980,4.678711
2021-05-26 15:53:09.397600,1.23468
2021-05-26 15:53:09.413230,-2.614563
2021-05-26 15:53:09.428850,-6.675354
2021-05-26 15:53:09.444480,-10.58221
2021-05-26 15:53:09.460110,-14.02808
2021-05-26 15:53:09.475730,-16.92676
2021-05-26 15:53:09.491360,-19.50891
2021-05-26 15:53:09.506980,-22.26349
2021-05-26 15:53:09.522610,-25.74225
2021-05-26 15:53:09.538230,-30.40216
2021-05-26 15:53:09.553860,-36.45599
2021-05-26 15:53:09.569490,-43.81805
2021-05-26 15:53:09.585110,-52.0575
2021-05-26 15:53:09.600740,-60.3028
2021-05-26 15:53:09.616360,-67.2934
2021-05-26 15:53:09.631990,-71.54901
2021-05-26 15:53:09.647610,-71.73389
2021-05-26 15:53:09.663240,-67.11554
2021-05-26 15:53:09.678870,-57.93298
2021-05-26 15:53:09.694490,-45.37531
2021-05-26 15:53:09.710120,-31.26624
2021-05-26 15:53:09.725740,-17.50122
2021-05-26 15:53:09.741370,-5.471863
2021-05-26 15:53:09.756990,4.153015
2021-05-26 15:53:09.772620,11.40381
2021-05-26 15:53:09.788250,16.71912
2021-05-26 15:53:09.803870,20.60809
2021-05-26 15:53:09.819500,23.45215
2021-05-26 15:53:09.835120,25.49677
2021-05-26 15:53:09.850750,26.93811
2021-05-26 15:53:09.866370,28.01782
2021-05-26 15:53:09.882000,29.06134
2021-05-26 15:53:09.897630,30.42731
2021-05-26 15:53:09.913250,32.34924
2021-05-26 15:53:09.928880,34.81531
2021-05-26 15:53:09.944500,37.53137
2021-05-26 15:53:09.960130,40.01782
2021-05-26 15:53:09.975750,41.82178
2021-05-26 15:53:09.991380,42.72925
2021-05-26 15:53:10.007010,42.86346
2021-05-26 15:53:10.022630,42.59711
2021-05-26 15:53:10.038260,42.3006
2021-05-26 15:53:10.053880,42.10229
2021-05-26 15:53:10.069510,41.7663
2021-05-26 15:53:10.085130,40.7832
2021-05-26 15:53:10.100760,38.67676
2021-05-26 15:53:10.116390,35.26917
2021-05-26 15:53:10.132010,30.7851
2021-05-26 15:53:10.147640,25.79065
2021-05-26 15:53:10.163260,20.93054
2021-05-26 15:53:10.178890,16.65771
2021-05-26 15:53:10.194510,13.11798
2021-05-26 15:53:10.210140,10.19244
2021-05-26 15:53:10.225770,7.584839
2021-05-26 15:53:10.241390,4.987
2021-05-26 15:53:10.257020,2.166687
2021-05-26 15:53:10.272640,-0.9862061
2021-05-26 15:53:10.288270,-4.464478
2021-05-26 15:53:10.319520,-11.85236
2021-05-26 15:53:10.335150,-15.42517
2021-05-26 15:53:10.350770,-18.77319
2021-05-26 15:53:10.366400,-21.97919
2021-05-26 15:53:10.382020,-25.28265
2021-05-26 15:53:10.397650,-29.0799
2021-05-26 15:53:10.413270,-33.77118
2021-05-26 15:53:10.428900,-39.58801
2021-05-26 15:53:10.444530,-46.37299
2021-05-26 15:53:10.460150,-53.45239
2021-05-26 15:53:10.475780,-59.68713
2021-05-26 15:53:10.491400,-63.6969
2021-05-26 15:53:10.507030,-64.26703
2021-05-26 15:53:10.522650,-60.7298
2021-05-26 15:53:10.538280,-53.23651
2021-05-26 15:53:10.553910,-42.73303
2021-05-26 15:53:10.569530,-30.64539
2021-05-26 15:53:10.585160,-18.51642
2021-05-26 15:53:10.600780,-7.63031
2021-05-26 15:53:10.616410,1.221436
2021-05-26 15:53:10.632040,7.730835
2021-05-26 15:53:10.647660,11.99731
2021-05-26 15:53:10.663290,14.36182
2021-05-26 15:53:10.678910,15.25598
2021-05-26 15:53:10.694540,15.12262
2021-05-26 15:53:10.710160,14.3833
2021-05-26 15:53:10.725790,13.41144
2021-05-26 15:53:10.741420,12.55481
2021-05-26 15:53:10.757040,12.08319
2021-05-26 15:53:10.772670,12.21228
2021-05-26 15:53:10.788290,12.99304
2021-05-26 15:53:10.803920,14.34027
2021-05-26 15:53:10.819540,16.00391
2021-05-26 15:53:10.835170,17.66467
2021-05-26 15:53:10.850800,18.99286
2021-05-26 15:53:10.866420,19.71277
2021-05-26 15:53:10.882050,19.6394
2021-05-26 15:53:10.897670,18.63416
2021-05-26 15:53:10.913300,16.63208
2021-05-26 15:53:10.928920,13.63177
2021-05-26 15:53:10.944550,9.744568
2021-05-26 15:53:10.960180,5.223022
2021-05-26 15:53:10.975800,0.401001
2021-05-26 15:53:10.991430,-4.412598
2021-05-26 15:53:11.007050,-9.017029
2021-05-26 15:53:11.022680,-13.42139
2021-05-26 15:53:11.038300,-17.7666
2021-05-26 15:53:11.053930,-22.33008
2021-05-26 15:53:11.069560,-27.34393
2021-05-26 15:53:11.085180,-32.84888
2021-05-26 15:53:11.100810,-38.60297
2021-05-26 15:53:11.116430,-43.96942
2021-05-26 15:53:11.132060,-47.96356
2021-05-26 15:53:11.147680,-49.48297
2021-05-26 15:53:11.163310,-47.61768
2021-05-26 15:53:11.178940,-42.01764
2021-05-26 15:53:11.194560,-33.12103
2021-05-26 15:53:11.210190,-22.08197
2021-05-26 15:53:11.225810,-10.41351
2021-05-26 15:53:11.241440,0.420105
2021-05-26 15:53:11.257060,9.425781
2021-05-26 15:53:11.272690,16.22961
2021-05-26 15:53:11.288320,20.97058
2021-05-26 15:53:11.303940,24.02362
2021-05-26 15:53:11.319570,25.75812
2021-05-26 15:53:11.335190,26.40503
2021-05-26 15:53:11.350820,26.16394
2021-05-26 15:53:11.366440,25.31085
2021-05-26 15:53:11.382070,24.24701
2021-05-26 15:53:11.397700,23.45782
2021-05-26 15:53:11.413320,23.3111
2021-05-26 15:53:11.428950,23.88
2021-05-26 15:53:11.444570,24.91431
2021-05-26 15:53:11.460200,25.95703
2021-05-26 15:53:11.475820,26.55286
2021-05-26 15:53:11.491450,26.45758
2021-05-26 15:53:11.507080,25.73798
2021-05-26 15:53:11.522700,24.64093
2021-05-26 15:53:11.538330,23.43018
2021-05-26 15:53:11.553950,22.21002
2021-05-26 15:53:11.569580,20.77747
2021-05-26 15:53:11.585200,18.75311
2021-05-26 15:53:11.600830,15.73688
2021-05-26 15:53:11.616460,11.5014
2021-05-26 15:53:11.632080,6.128357
2021-05-26 15:53:11.647710,0.01318359
2021-05-26 15:53:11.663330,-6.25885
2021-05-26 15:53:11.678960,-12.10547
2021-05-26 15:53:11.694580,-17.0932
2021-05-26 15:53:11.710210,-21.17584
2021-05-26 15:53:11.725840,-24.62714
2021-05-26 15:53:11.741460,-27.97827
2021-05-26 15:53:11.757090,-31.80347
2021-05-26 15:53:11.772710,-36.54761
2021-05-26 15:53:11.788340,-42.34674
2021-05-26 15:53:11.803960,-48.90546
2021-05-26 15:53:11.819590,-55.43018
2021-05-26 15:53:11.835220,-60.74774
2021-05-26 15:53:11.850840,-63.53302
2021-05-26 15:53:11.866470,-62.63757
2021-05-26 15:53:11.882090,-57.49298
2021-05-26 15:53:11.897720,-48.32941
2021-05-26 15:53:11.913340,-36.19531
2021-05-26 15:53:11.928970,-22.69348
2021-05-26 15:53:11.944600,-9.562317
2021-05-26 15:53:11.960220,1.838928
2021-05-26 15:53:11.975850,10.78796
2021-05-26 15:53:11.991470,17.22217
2021-05-26 15:53:12.007100,21.56726
2021-05-26 15:53:12.022720,24.43579
2021-05-26 15:53:12.038350,26.37787
2021-05-26 15:53:12.053980,27.81488
2021-05-26 15:53:12.069600,29.04407
2021-05-26 15:53:12.085230,30.26862
2021-05-26 15:53:12.100850,31.67627
2021-05-26 15:53:12.116480,33.40485
2021-05-26 15:53:12.132100,35.46246
2021-05-26 15:53:12.147730,37.76733
2021-05-26 15:53:12.163360,40.08569
2021-05-26 15:53:12.178980,42.0921
2021-05-26 15:53:12.194610,43.5423
2021-05-26 15:53:12.210230,44.28992
2021-05-26 15:53:12.225860,44.39252
2021-05-26 15:53:12.241480,44.02399
2021-05-26 15:53:12.257110,43.41211
2021-05-26 15:53:12.272740,42.67731
2021-05-26 15:53:12.288360,41.76758
2021-05-26 15:53:12.303990,40.43884
2021-05-26 15:53:12.319610,38.35236
2021-05-26 15:53:12.335240,35.255
2021-05-26 15:53:12.350860,31.12604
2021-05-26 15:53:12.366490,26.26385
2021-05-26 15:53:12.382120,21.19073
2021-05-26 15:53:12.397740,16.45264
2021-05-26 15:53:12.413370,12.44684
2021-05-26 15:53:12.428990,9.251831
2021-05-26 15:53:12.444620,6.65863
2021-05-26 15:53:12.460240,4.225464
2021-05-26 15:53:12.475870,1.496582
2021-05-26 15:53:12.491500,-1.845154
2021-05-26 15:53:12.507120,-5.852173
2021-05-26 15:53:12.522750,-10.31525
2021-05-26 15:53:12.538370,-14.8501
2021-05-26 15:53:12.554000,-19.1012
2021-05-26 15:53:12.569620,-22.90375
2021-05-26 15:53:12.600880,-29.70685
2021-05-26 15:53:12.616500,-33.42017
2021-05-26 15:53:12.632130,-37.89899
2021-05-26 15:53:12.647750,-43.40179
2021-05-26 15:53:12.663380,-49.91046
2021-05-26 15:53:12.679000,-57.01379
2021-05-26 15:53:12.694630,-63.84955
2021-05-26 15:53:12.710260,-69.14758
2021-05-26 15:53:12.725880,-71.46893
2021-05-26 15:53:12.741510,-69.6673
2021-05-26 15:53:12.757130,-63.28839
2021-05-26 15:53:12.772760,-52.86627
2021-05-26 15:53:12.788380,-39.7486
2021-05-26 15:53:12.804010,-25.76538
2021-05-26 15:53:12.819640,-12.60681
2021-05-26 15:53:12.835260,-1.417358
2021-05-26 15:53:12.850890,7.351929
2021-05-26 15:53:12.866510,13.80884
2021-05-26 15:53:12.882140,18.35583
2021-05-26 15:53:12.897760,21.4339
2021-05-26 15:53:12.913390,23.42596
2021-05-26 15:53:12.929020,24.67981
2021-05-26 15:53:12.944640,25.48456
2021-05-26 15:53:12.960270,26.09827
2021-05-26 15:53:12.975890,26.75793
2021-05-26 15:53:12.991520,27.60651
2021-05-26 15:53:13.007140,28.72095
2021-05-26 15:53:13.022770,30.12524
2021-05-26 15:53:13.038400,31.76398
2021-05-26 15:53:13.054020,33.50519
2021-05-26 15:53:13.069650,35.13586
2021-05-26 15:53:13.085270,36.40228
2021-05-26 15:53:13.100900,37.11011
2021-05-26 15:53:13.116520,37.20001
2021-05-26 15:53:13.132150,36.7005
2021-05-26 15:53:13.147780,35.68976
2021-05-26 15:53:13.163400,34.21344
2021-05-26 15:53:13.179030,32.24524
2021-05-26 15:53:13.194650,29.68726
2021-05-26 15:53:13.210280,26.48657
2021-05-26 15:53:13.225900,22.67004
2021-05-26 15:53:13.241530,18.38275
2021-05-26 15:53:13.257160,13.85168
2021-05-26 15:53:13.272780,9.209839
2021-05-26 15:53:13.288410,4.523499
2021-05-26 15:53:13.304030,-0.24823
2021-05-26 15:53:13.319660,-5.151123
2021-05-26 15:53:13.335290,-10.19061
2021-05-26 15:53:13.350910,-15.28015
2021-05-26 15:53:13.366540,-20.26752
2021-05-26 15:53:13.382160,-24.9917
2021-05-26 15:53:13.397790,-29.36523
2021-05-26 15:53:13.413410,-33.47253
2021-05-26 15:53:13.429040,-37.52924
2021-05-26 15:53:13.444670,-41.79614
2021-05-26 15:53:13.460290,-46.40094
2021-05-26 15:53:13.475920,-51.11688
2021-05-26 15:53:13.491540,-55.27167
2021-05-26 15:53:13.507170,-57.83344
2021-05-26 15:53:13.522790,-57.71533
2021-05-26 15:53:13.538420,-54.18359
2021-05-26 15:53:13.554050,-47.16595
2021-05-26 15:53:13.569670,-37.38208
2021-05-26 15:53:13.585300,-26.1203
2021-05-26 15:53:13.600920,-14.91321
2021-05-26 15:53:13.616550,-5.090759
2021-05-26 15:53:13.632170,2.528809
2021-05-26 15:53:13.647800,7.747864
2021-05-26 15:53:13.663430,10.86548
2021-05-26 15:53:13.679050,12.46701
2021-05-26 15:53:13.694680,13.17679
2021-05-26 15:53:13.710300,13.46777
2021-05-26 15:53:13.725930,13.60559
2021-05-26 15:53:13.741550,13.68787
2021-05-26 15:53:13.757180,13.7612
2021-05-26 15:53:13.772810,13.88116
2021-05-26 15:53:13.788430,14.20712
2021-05-26 15:53:13.804060,14.87692
2021-05-26 15:53:13.819680,15.89066
2021-05-26 15:53:13.835310,17.08514
2021-05-26 15:53:13.850930,18.07373
2021-05-26 15:53:13.866560,18.39774
2021-05-26 15:53:13.882190,17.69516
2021-05-26 15:53:13.897810,15.79736
2021-05-26 15:53:13.913440,12.77951
2021-05-26 15:53:13.929060,8.901978
2021-05-26 15:53:13.944690,4.51004
2021-05-26 15:53:13.960310,-0.09661865
2021-05-26 15:53:13.975940,-4.714417
2021-05-26 15:53:13.991570,-9.24881
2021-05-26 15:53:14.007190,-13.68347
2021-05-26 15:53:14.022820,-18.04605
2021-05-26 15:53:14.038440,-22.39783
2021-05-26 15:53:14.054070,-26.85693
2021-05-26 15:53:14.069690,-31.57245
2021-05-26 15:53:14.085320,-36.63748
2021-05-26 15:53:14.100950,-41.93033
2021-05-26 15:53:14.116570,-46.92484
2021-05-26 15:53:14.132200,-50.66644
2021-05-26 15:53:14.147820,-51.93396
2021-05-26 15:53:14.163450,-49.68073
2021-05-26 15:53:14.179070,-43.45444
2021-05-26 15:53:14.194700,-33.71643
2021-05-26 15:53:14.210330,-21.77792
2021-05-26 15:53:14.225950,-9.414551
2021-05-26 15:53:14.241580,1.689209
2021-05-26 15:53:14.257200,10.43106
2021-05-26 15:53:14.272830,16.4119
2021-05-26 15:53:14.288450,19.82968
2021-05-26 15:53:14.304080,21.20593
2021-05-26 15:53:14.319710,21.06598
2021-05-26 15:53:14.335330,19.83762
2021-05-26 15:53:14.350960,17.85907
2021-05-26 15:53:14.366580,15.51794
2021-05-26 15:53:14.382210,13.27072
2021-05-26 15:53:14.397830,11.61133
2021-05-26 15:53:14.413460,10.93594
2021-05-26 15:53:14.429090,11.34204
2021-05-26 15:53:14.444710,12.56802
2021-05-26 15:53:14.460340,14.08228
2021-05-26 15:53:14.475960,15.21667
2021-05-26 15:53:14.491590,15.452
2021-05-26 15:53:14.507210,14.56155
2021-05-26 15:53:14.522840,12.61639
2021-05-26 15:53:14.538470,9.903839
2021-05-26 15:53:14.554090,6.704651
2021-05-26 15:53:14.569720,3.203979
2021-05-26 15:53:14.585340,-0.5503845
2021-05-26 15:53:14.600970,-4.529938
2021-05-26 15:53:14.616590,-8.721985
2021-05-26 15:53:14.632220,-13.05954
2021-05-26 15:53:14.647850,-17.53015
2021-05-26 15:53:14.663470,-22.28531
2021-05-26 15:53:14.679100,-27.58154
2021-05-26 15:53:14.694720,-33.62646
2021-05-26 15:53:14.710350,-40.3244
2021-05-26 15:53:14.725970,-47.05084
2021-05-26 15:53:14.741600,-52.67621
2021-05-26 15:53:14.757230,-55.83371
2021-05-26 15:53:14.772850,-55.37167
2021-05-26 15:53:14.788480,-50.80212
2021-05-26 15:53:14.804100,-42.49786
2021-05-26 15:53:14.819730,-31.60947
2021-05-26 15:53:14.835350,-19.68381
2021-05-26 15:53:14.850980,-8.222595
2021-05-26 15:53:14.866610,1.677399
2021-05-26 15:53:14.882230,9.454498
2021-05-26 15:53:14.897860,15.04913
2021-05-26 15:53:14.913480,18.71161
2021-05-26 15:53:14.929110,20.8111
2021-05-26 15:53:14.944730,21.71793
2021-05-26 15:53:14.960360,21.77798
2021-05-26 15:53:14.975990,21.33615
2021-05-26 15:53:14.991610,20.72778
2021-05-26 15:53:15.007240,20.27209
2021-05-26 15:53:15.022860,20.18607
2021-05-26 15:53:15.038490,20.57208
2021-05-26 15:53:15.054110,21.35333
2021-05-26 15:53:15.069740,22.29318
2021-05-26 15:53:15.085370,23.10684
2021-05-26 15:53:15.100990,23.54568
2021-05-26 15:53:15.116620,23.483
2021-05-26 15:53:15.132240,22.95715
2021-05-26 15:53:15.147870,22.05365
2021-05-26 15:53:15.163490,20.80157
2021-05-26 15:53:15.179120,19.09613
2021-05-26 15:53:15.194750,16.74258
2021-05-26 15:53:15.210370,13.52051
2021-05-26 15:53:15.226000,9.371246
2021-05-26 15:53:15.241620,4.457794
2021-05-26 15:53:15.257250,-0.8474426
2021-05-26 15:53:15.272870,-6.079102
2021-05-26 15:53:15.288500,-10.89572
2021-05-26 15:53:15.304130,-15.19995
2021-05-26 15:53:15.319750,-19.17538
2021-05-26 15:53:15.335380,-23.2243
2021-05-26 15:53:15.351000,-27.79019
2021-05-26 15:53:15.366630,-33.12939
2021-05-26 15:53:15.382250,-39.1153
2021-05-26 15:53:15.397880,-45.10489
2021-05-26 15:53:15.413510,-49.98047
2021-05-26 15:53:15.429130,-52.42709
2021-05-26 15:53:15.444760,-51.31531
2021-05-26 15:53:15.460380,-46.09949
2021-05-26 15:53:15.476010,-37.12341
2021-05-26 15:53:15.491640,-25.51196
2021-05-26 15:53:15.507260,-12.89545
2021-05-26 15:53:15.522890,-0.9014587
2021-05-26 15:53:15.538510,9.289368
2021-05-26 15:53:15.554140,17.17426
2021-05-26 15:53:15.569760,22.83563
2021-05-26 15:53:15.585390,26.7449
2021-05-26 15:53:15.601020,29.47867
2021-05-26 15:53:15.616640,31.46451
2021-05-26 15:53:15.632270,32.99792
2021-05-26 15:53:15.647890,34.24475
2021-05-26 15:53:15.663520,35.30548
2021-05-26 15:53:15.679140,36.28732
2021-05-26 15:53:15.694770,37.27573
2021-05-26 15:53:15.710400,38.30157
2021-05-26 15:53:15.726020,39.33487
2021-05-26 15:53:15.741650,40.29834
2021-05-26 15:53:15.757270,41.07263
2021-05-26 15:53:15.772900,41.59592
2021-05-26 15:53:15.788520,41.8689
2021-05-26 15:53:15.804150,41.91913
2021-05-26 15:53:15.819780,41.80933
2021-05-26 15:53:15.835400,41.53189
2021-05-26 15:53:15.851030,41.01422
2021-05-26 15:53:15.866650,40.12979
2021-05-26 15:53:15.882280,38.76987
2021-05-26 15:53:15.897900,36.84961
2021-05-26 15:53:15.913530,34.42801
2021-05-26 15:53:15.929160,31.63626
2021-05-26 15:53:15.944780,28.64023
2021-05-26 15:53:15.960410,25.64139
2021-05-26 15:53:15.976030,22.73627
2021-05-26 15:53:15.991660,19.96075
2021-05-26 15:53:16.007280,17.26147
2021-05-26 15:53:16.022910,14.55768
2021-05-26 15:53:16.038540,11.78732
2021-05-26 15:53:16.054160,8.971802
2021-05-26 15:53:16.069790,6.134644
2021-05-26 15:53:16.085410,3.264709
2021-05-26 15:53:16.101040,0.2994385
2021-05-26 15:53:16.116660,-2.898712
2021-05-26 15:53:16.132290,-6.44751
2021-05-26 15:53:16.147920,-10.37299
2021-05-26 15:53:16.163540,-14.54303
2021-05-26 15:53:16.179170,-18.70694
2021-05-26 15:53:16.194790,-22.5976
2021-05-26 15:53:16.210420,-26.07077
2021-05-26 15:53:16.226040,-29.203
2021-05-26 15:53:16.241670,-32.25827
2021-05-26 15:53:16.257300,-35.64981
2021-05-26 15:53:16.272920,-39.82468
2021-05-26 15:53:16.288550,-45.09106
2021-05-26 15:53:16.304170,-51.49701
2021-05-26 15:53:16.319800,-58.67776
2021-05-26 15:53:16.335420,-65.77158
2021-05-26 15:53:16.351050,-71.4534
2021-05-26 15:53:16.366680,-74.24509
2021-05-26 15:53:16.382300,-72.89993
2021-05-26 15:53:16.397930,-66.87775
2021-05-26 15:53:16.413550,-56.60675
2021-05-26 15:53:16.429180,-43.40112
2021-05-26 15:53:16.444800,-29.12408
2021-05-26 15:53:16.460430,-15.62039
2021-05-26 15:53:16.476060,-4.237427
2021-05-26 15:53:16.491680,4.505402
2021-05-26 15:53:16.507310,10.77417
2021-05-26 15:53:16.522930,15.21948
2021-05-26 15:53:16.538560,18.56134
2021-05-26 15:53:16.554180,21.38004
2021-05-26 15:53:16.569810,23.97202
2021-05-26 15:53:16.585440,26.43018
2021-05-26 15:53:16.601060,28.69437
2021-05-26 15:53:16.616690,30.73404
2021-05-26 15:53:16.632310,32.55527
2021-05-26 15:53:16.647940,34.19278
2021-05-26 15:53:16.663560,35.67993
2021-05-26 15:53:16.679190,36.98517
2021-05-26 15:53:16.694820,38.00937
2021-05-26 15:53:16.710440,38.61905
2021-05-26 15:53:16.726070,38.76022
2021-05-26 15:53:16.741690,38.48618
2021-05-26 15:53:16.757320,37.97574
2021-05-26 15:53:16.772940,37.41794
2021-05-26 15:53:16.788570,36.8645
2021-05-26 15:53:16.804200,36.14471
2021-05-26 15:53:16.819820,34.931
2021-05-26 15:53:16.835450,32.86572
2021-05-26 15:53:16.851070,29.79309
2021-05-26 15:53:16.866700,25.86545
2021-05-26 15:53:16.882320,21.50528
2021-05-26 15:53:16.897950,17.26251
2021-05-26 15:53:16.913580,13.57034
2021-05-26 15:53:16.929200,10.56812
2021-05-26 15:53:16.944830,8.084381
2021-05-26 15:53:16.960450,5.768158
2021-05-26 15:53:16.976080,3.215668
2021-05-26 15:53:16.991700,0.2145691
2021-05-26 15:53:17.007330,-3.216339
2021-05-26 15:53:17.022960,-6.911041
2021-05-26 15:53:17.038580,-10.64789
2021-05-26 15:53:17.054210,-14.2597
2021-05-26 15:53:17.069830,-17.72501
2021-05-26 15:53:17.085460,-21.11563
2021-05-26 15:53:17.101080,-24.58496
2021-05-26 15:53:17.116710,-28.2803
2021-05-26 15:53:17.132340,-32.35553
2021-05-26 15:53:17.147960,-36.95334
2021-05-26 15:53:17.163590,-42.18048
2021-05-26 15:53:17.179210,-47.89871
2021-05-26 15:53:17.194840,-53.59351
2021-05-26 15:53:17.210460,-58.29144
2021-05-26 15:53:17.226090,-60.73477
2021-05-26 15:53:17.241720,-59.74997
2021-05-26 15:53:17.257340,-54.70816
2021-05-26 15:53:17.272970,-45.84503
2021-05-26 15:53:17.288590,-34.20483
2021-05-26 15:53:17.304220,-21.34354
2021-05-26 15:53:17.319840,-8.830627
2021-05-26 15:53:17.335470,2.126129
2021-05-26 15:53:17.351100,10.90973
2021-05-26 15:53:17.366720,17.38101
2021-05-26 15:53:17.382350,21.71774
2021-05-26 15:53:17.397970,24.21445
2021-05-26 15:53:17.413600,25.19705
2021-05-26 15:53:17.429220,25.03209
2021-05-26 15:53:17.444850,24.11821
2021-05-26 15:53:17.460480,22.90538
2021-05-26 15:53:17.476100,21.80356
2021-05-26 15:53:17.491730,21.12688
2021-05-26 15:53:17.507350,21.00583
2021-05-26 15:53:17.522980,21.38171
2021-05-26 15:53:17.538600,22.04988
2021-05-26 15:53:17.554230,22.7626
2021-05-26 15:53:17.569860,23.31137
2021-05-26 15:53:17.585480,23.5813
2021-05-26 15:53:17.601110,23.53857
2021-05-26 15:53:17.616730,23.19254
2021-05-26 15:53:17.632360,22.57744
2021-05-26 15:53:17.647980,21.64546
2021-05-26 15:53:17.663610,20.30849
2021-05-26 15:53:17.679240,18.52362
2021-05-26 15:53:17.694860,16.31097
2021-05-26 15:53:17.710490,13.85373
2021-05-26 15:53:17.726110,11.40091
2021-05-26 15:53:17.741740,9.150833
2021-05-26 15:53:17.757360,7.151062
2021-05-26 15:53:17.772990,5.282379
2021-05-26 15:53:17.788620,3.361145
2021-05-26 15:53:17.804240,1.226852
2021-05-26 15:53:17.819870,-1.113617
2021-05-26 15:53:17.835490,-3.530273
2021-05-26 15:53:17.851120,-5.831985
2021-05-26 15:53:17.866750,-7.917038
2021-05-26 15:53:17.882370,-9.860687
2021-05-26 15:53:17.898000,-11.98387
2021-05-26 15:53:17.913620,-14.72136
2021-05-26 15:53:17.929250,-18.59094
2021-05-26 15:53:17.944870,-23.95038
2021-05-26 15:53:17.960500,-30.81865
2021-05-26 15:53:17.976130,-38.72469
2021-05-26 15:53:17.991750,-46.62735
2021-05-26 15:53:18.007380,-53.09755
2021-05-26 15:53:18.023000,-56.68207
2021-05-26 15:53:18.038630,-56.36971
2021-05-26 15:53:18.054250,-51.9566
2021-05-26 15:53:18.069880,-44.15486
2021-05-26 15:53:18.085510,-34.29724
2021-05-26 15:53:18.101130,-23.90936
2021-05-26 15:53:18.116760,-14.27261
2021-05-26 15:53:18.132380,-6.102997
2021-05-26 15:53:18.148010,0.3922729
2021-05-26 15:53:18.163630,5.35173
2021-05-26 15:53:18.179260,9.011429
2021-05-26 15:53:18.194890,11.60268
2021-05-26 15:53:18.210510,13.25688
2021-05-26 15:53:18.226140,14.11044
2021-05-26 15:53:18.241760,14.39508
2021-05-26 15:53:18.257390,14.40887
2021-05-26 15:53:18.273010,14.53406
2021-05-26 15:53:18.288640,15.1532
2021-05-26 15:53:18.304270,16.48494
2021-05-26 15:53:18.319890,18.51653
2021-05-26 15:53:18.335520,21.0349
2021-05-26 15:53:18.351140,23.63066
2021-05-26 15:53:18.366770,25.88023
2021-05-26 15:53:18.382390,27.46184
2021-05-26 15:53:18.398020,28.20804
2021-05-26 15:53:18.413650,28.15712
2021-05-26 15:53:18.429270,27.4101
2021-05-26 15:53:18.444900,26.07617
2021-05-26 15:53:18.460520,24.19612
2021-05-26 15:53:18.476150,21.77074
2021-05-26 15:53:18.491770,18.77119
2021-05-26 15:53:18.507400,15.2588
2021-05-26 15:53:18.523030,11.36778
2021-05-26 15:53:18.538650,7.251511
2021-05-26 15:53:18.554280,3.077072
2021-05-26 15:53:18.569900,-1.081512
2021-05-26 15:53:18.585530,-5.221451
2021-05-26 15:53:18.601150,-9.365791
2021-05-26 15:53:18.616780,-13.50558
2021-05-26 15:53:18.632410,-17.59145
2021-05-26 15:53:18.648030,-21.53059
2021-05-26 15:53:18.663660,-25.32468
2021-05-26 15:53:18.679280,-29.12787
2021-05-26 15:53:18.694910,-33.25147
2021-05-26 15:53:18.710530,-38.00631
2021-05-26 15:53:18.726160,-43.49129
2021-05-26 15:53:18.741790,-49.32708
2021-05-26 15:53:18.757410,-54.60276
2021-05-26 15:53:18.773040,-58.07408
2021-05-26 15:53:18.788660,-58.51295
2021-05-26 15:53:18.804290,-55.16952
2021-05-26 15:53:18.819910,-48.07405
2021-05-26 15:53:18.835540,-38.02318
2021-05-26 15:53:18.851170,-26.39256
2021-05-26 15:53:18.866790,-14.64706
2021-05-26 15:53:18.882420,-3.977997
2021-05-26 15:53:18.898040,4.92556
2021-05-26 15:53:18.913670,11.88161
2021-05-26 15:53:18.929290,17.03315
2021-05-26 15:53:18.944920,20.62293
2021-05-26 15:53:18.960550,22.8746
2021-05-26 15:53:18.976170,24.0295
2021-05-26 15:53:18.991800,24.37044
2021-05-26 15:53:19.007420,24.36373
2021-05-26 15:53:19.023050,24.54075
2021-05-26 15:53:19.038670,25.34358
2021-05-26 15:53:19.054300,26.94392
2021-05-26 15:53:19.069930,29.14136
2021-05-26 15:53:19.085550,31.44023
2021-05-26 15:53:19.101180,33.29203
2021-05-26 15:53:19.116800,34.37507
2021-05-26 15:53:19.132430,34.64787
2021-05-26 15:53:19.148050,34.37386
2021-05-26 15:53:19.163680,33.86139
2021-05-26 15:53:19.179310,33.29447
2021-05-26 15:53:19.194930,32.63783
2021-05-26 15:53:19.210560,31.68688
2021-05-26 15:53:19.226180,30.14563
2021-05-26 15:53:19.241810,27.82585
2021-05-26 15:53:19.257430,24.73439
2021-05-26 15:53:19.273060,21.02734
2021-05-26 15:53:19.288690,17.00455
2021-05-26 15:53:19.304310,13.04099
2021-05-26 15:53:19.319940,9.443718
2021-05-26 15:53:19.335560,6.392441
2021-05-26 15:53:19.351190,3.840775
2021-05-26 15:53:19.366810,1.502712
2021-05-26 15:53:19.382440,-0.9965172
2021-05-26 15:53:19.398070,-3.979507
2021-05-26 15:53:19.413690,-7.536236
2021-05-26 15:53:19.429320,-11.51934
2021-05-26 15:53:19.444940,-15.62154
2021-05-26 15:53:19.460570,-19.55743
2021-05-26 15:53:19.476190,-23.18805
2021-05-26 15:53:19.491820,-26.54267
2021-05-26 15:53:19.507450,-29.78585
2021-05-26 15:53:19.523070,-33.16743
2021-05-26 15:53:19.538700,-36.94206
2021-05-26 15:53:19.554320,-41.38534
2021-05-26 15:53:19.569950,-46.6626
2021-05-26 15:53:19.585570,-52.69015
2021-05-26 15:53:19.601200,-58.95915
2021-05-26 15:53:19.616830,-64.43712
2021-05-26 15:53:19.632450,-67.75965
2021-05-26 15:53:19.648080,-67.6043
2021-05-26 15:53:19.663700,-63.19943
2021-05-26 15:53:19.679330,-54.66837
2021-05-26 15:53:19.694950,-43.07855
2021-05-26 15:53:19.710580,-30.08654
2021-05-26 15:53:19.726210,-17.41619
2021-05-26 15:53:19.741830,-6.355253
2021-05-26 15:53:19.757460,2.499815
2021-05-26 15:53:19.773080,9.199965
2021-05-26 15:53:19.788710,14.16668
2021-05-26 15:53:19.804330,17.86314
2021-05-26 15:53:19.819960,20.63529
2021-05-26 15:53:19.835590,22.65378
2021-05-26 15:53:19.851210,24.03417
2021-05-26 15:53:19.866840,24.94457
2021-05-26 15:53:19.882460,25.66819
2021-05-26 15:53:19.898090,26.48266
2021-05-26 15:53:19.913710,27.59749
2021-05-26 15:53:19.929340,29.028
2021-05-26 15:53:19.944970,30.59741
2021-05-26 15:53:19.960590,32.07042
2021-05-26 15:53:19.976220,33.24833
2021-05-26 15:53:19.991840,34.06074
2021-05-26 15:53:20.007470,34.58509
2021-05-26 15:53:20.023090,34.94916
2021-05-26 15:53:20.038720,35.22206
2021-05-26 15:53:20.054350,35.32944
2021-05-26 15:53:20.069970,35.06292
2021-05-26 15:53:20.085600,34.11632
2021-05-26 15:53:20.101220,32.25407
2021-05-26 15:53:20.116850,29.38454
2021-05-26 15:53:20.132470,25.66311
2021-05-26 15:53:20.148100,21.46217
2021-05-26 15:53:20.163730,17.2853
2021-05-26 15:53:20.179350,13.5691
2021-05-26 15:53:20.194980,10.55002
2021-05-26 15:53:20.210600,8.149186
2021-05-26 15:53:20.226230,5.998354
2021-05-26 15:53:20.241850,3.654741
2021-05-26 15:53:20.257480,0.7632675
2021-05-26 15:53:20.273110,-2.779552
2021-05-26 15:53:20.288730,-6.761162
2021-05-26 15:53:20.304360,-10.81251
2021-05-26 15:53:20.319980,-14.5608
2021-05-26 15:53:20.335610,-17.79388
2021-05-26 15:53:20.351240,-20.55477
2021-05-26 15:53:20.366860,-23.12692
2021-05-26 15:53:20.382490,-25.88989
2021-05-26 15:53:20.398110,-29.2445
2021-05-26 15:53:20.413740,-33.50504
2021-05-26 15:53:20.429360,-38.78986
2021-05-26 15:53:20.444990,-44.95977
2021-05-26 15:53:20.460620,-51.49942
2021-05-26 15:53:20.491870,-61.75521
2021-05-26 15:53:20.507490,-63.06769
2021-05-26 15:53:20.523120,-60.54121
2021-05-26 15:53:20.538740,-53.96635
2021-05-26 15:53:20.554370,-43.95146
2021-05-26 15:53:20.570000,-31.76038
2021-05-26 15:53:20.585620,-18.93481
2021-05-26 15:53:20.601250,-6.914455
2021-05-26 15:53:20.616870,3.32452
2021-05-26 15:53:20.632500,11.31281
2021-05-26 15:53:20.648120,17.04718
2021-05-26 15:53:20.663750,20.79139
2021-05-26 15:53:20.679380,22.92453
2021-05-26 15:53:20.695000,23.84497
2021-05-26 15:53:20.710630,23.96563
2021-05-26 15:53:20.726250,23.71705
2021-05-26 15:53:20.741880,23.46907
2021-05-26 15:53:20.757500,23.55128
2021-05-26 15:53:20.773130,24.12482
2021-05-26 15:53:20.788760,25.18168
2021-05-26 15:53:20.804380,26.54272
2021-05-26 15:53:20.820010,27.89064
2021-05-26 15:53:20.835630,28.88893
2021-05-26 15:53:20.851260,29.2961
2021-05-26 15:53:20.866880,29.09556
2021-05-26 15:53:20.882510,28.4803
2021-05-26 15:53:20.898140,27.75195
2021-05-26 15:53:20.913760,27.11021
2021-05-26 15:53:20.929390,26.49879
2021-05-26 15:53:20.945010,25.58596
2021-05-26 15:53:20.960640,23.9249
2021-05-26 15:53:20.976260,21.24399
2021-05-26 15:53:20.991890,17.60681
2021-05-26 15:53:21.007520,13.43411
2021-05-26 15:53:21.023140,9.263443
2021-05-26 15:53:21.038770,5.539589
2021-05-26 15:53:21.054390,2.364998
2021-05-26 15:53:21.070020,-0.4686813
2021-05-26 15:53:21.085640,-3.293167
2021-05-26 15:53:21.101270,-6.372002
2021-05-26 15:53:21.116900,-9.755951
2021-05-26 15:53:21.132520,-13.29914
2021-05-26 15:53:21.148150,-16.77526
2021-05-26 15:53:21.163770,-20.05571
2021-05-26 15:53:21.179400,-23.1005
2021-05-26 15:53:21.195020,-25.99058
2021-05-26 15:53:21.210650,-28.84737
2021-05-26 15:53:21.226280,-31.74626
2021-05-26 15:53:21.241900,-34.82675
2021-05-26 15:53:21.257530,-38.23016
2021-05-26 15:53:21.273150,-42.09792
2021-05-26 15:53:21.288780,-46.44688
2021-05-26 15:53:21.304400,-51.01559
2021-05-26 15:53:21.320030,-55.1041
2021-05-26 15:53:21.335660,-57.65755
2021-05-26 15:53:21.351280,-57.53873
2021-05-26 15:53:21.366910,-53.87007
2021-05-26 15:53:21.382530,-46.46487
2021-05-26 15:53:21.398160,-35.93095
2021-05-26 15:53:21.413780,-23.54008
2021-05-26 15:53:21.429410,-10.85073
2021-05-26 15:53:21.445040,0.740715
2021-05-26 15:53:21.460660,10.31276
2021-05-26 15:53:21.476290,17.47126
2021-05-26 15:53:21.491910,22.23508
2021-05-26 15:53:21.507540,24.90088
2021-05-26 15:53:21.523160,25.85207
2021-05-26 15:53:21.538790,25.50843
2021-05-26 15:53:21.554420,24.32654
2021-05-26 15:53:21.570040,22.75595
2021-05-26 15:53:21.585670,21.19821
2021-05-26 15:53:21.601290,19.99741
2021-05-26 15:53:21.616920,19.33825
2021-05-26 15:53:21.632540,19.30817
2021-05-26 15:53:21.648170,19.87698
2021-05-26 15:53:21.663800,20.95731
2021-05-26 15:53:21.679420,22.39309
2021-05-26 15:53:21.695050,23.97276
2021-05-26 15:53:21.710670,25.42146
2021-05-26 15:53:21.726300,26.44027
2021-05-26 15:53:21.741920,26.74899
2021-05-26 15:53:21.757550,26.15877
2021-05-26 15:53:21.773180,24.62276
2021-05-26 15:53:21.788800,22.24892
2021-05-26 15:53:21.804430,19.25038
2021-05-26 15:53:21.820050,15.87193
2021-05-26 15:53:21.835680,12.34092
2021-05-26 15:53:21.851300,8.75354
2021-05-26 15:53:21.866930,5.130234
2021-05-26 15:53:21.882560,1.389458
2021-05-26 15:53:21.898180,-2.546036
2021-05-26 15:53:21.913810,-6.67453
2021-05-26 15:53:21.929430,-10.89035
2021-05-26 15:53:21.945060,-15.02968
2021-05-26 15:53:21.960680,-18.88815
2021-05-26 15:53:21.976310,-22.35141
2021-05-26 15:53:21.991940,-25.4353
2021-05-26 15:53:22.007560,-28.29782
2021-05-26 15:53:22.023190,-31.21714
2021-05-26 15:53:22.038810,-34.5798
2021-05-26 15:53:22.054440,-38.77238
2021-05-26 15:53:22.070060,-43.99325
2021-05-26 15:53:22.085690,-50.13939
2021-05-26 15:53:22.101320,-56.58274
2021-05-26 15:53:22.116940,-62.16366
2021-05-26 15:53:22.132570,-65.43842
2021-05-26 15:53:22.148190,-65.07394
2021-05-26 15:53:22.163820,-60.34026
2021-05-26 15:53:22.179440,-51.45469
2021-05-26 15:53:22.195070,-39.59734
2021-05-26 15:53:22.210700,-26.50797
2021-05-26 15:53:22.226320,-13.96792
2021-05-26 15:53:22.241950,-3.239479
2021-05-26 15:53:22.257570,5.167381
2021-05-26 15:53:22.273200,11.37889
2021-05-26 15:53:22.288820,15.88617
2021-05-26 15:53:22.304450,19.1598
2021-05-26 15:53:22.320080,21.5004
2021-05-26 15:53:22.335700,23.08443
2021-05-26 15:53:22.351330,24.02999
2021-05-26 15:53:22.366950,24.55803
2021-05-26 15:53:22.382580,24.98817
2021-05-26 15:53:22.398200,25.65349
2021-05-26 15:53:22.413830,26.74706
2021-05-26 15:53:22.429460,28.3053
2021-05-26 15:53:22.445080,30.13509
2021-05-26 15:53:22.460710,31.95908
2021-05-26 15:53:22.476330,33.52154
2021-05-26 15:53:22.491960,34.62832
2021-05-26 15:53:22.507580,35.21305
2021-05-26 15:53:22.523210,35.26155
2021-05-26 15:53:22.538840,34.79187
2021-05-26 15:53:22.554460,33.77637
2021-05-26 15:53:22.570090,32.20976
2021-05-26 15:53:22.585710,30.0836
2021-05-26 15:53:22.601340,27.43793
2021-05-26 15:53:22.616970,24.36845
2021-05-26 15:53:22.632590,20.97501
2021-05-26 15:53:22.648220,17.3629
2021-05-26 15:53:22.663840,13.5708
2021-05-26 15:53:22.679470,9.610603
2021-05-26 15:53:22.695090,5.433945
2021-05-26 15:53:22.710720,0.9976807
2021-05-26 15:53:22.726350,-3.671379
2021-05-26 15:53:22.741970,-8.465424
2021-05-26 15:53:22.757600,-13.15636
2021-05-26 15:53:22.773220,-17.53983
2021-05-26 15:53:22.788850,-21.41705
2021-05-26 15:53:22.804470,-24.81117
2021-05-26 15:53:22.820100,-27.97977
2021-05-26 15:53:22.851350,-35.58518
2021-05-26 15:53:22.866980,-40.84538
2021-05-26 15:53:22.882600,-47.01438
2021-05-26 15:53:22.898230,-53.33027
2021-05-26 15:53:22.913850,-58.60236
2021-05-26 15:53:22.929480,-61.42842
2021-05-26 15:53:22.945110,-60.6793
2021-05-26 15:53:22.960730,-55.86456
2021-05-26 15:53:22.976360,-47.29231
2021-05-26 15:53:22.991980,-35.99821
2021-05-26 15:53:23.007610,-23.44777
2021-05-26 15:53:23.023230,-11.15293
2021-05-26 15:53:23.038860,-0.3476944
2021-05-26 15:53:23.054490,8.231987
2021-05-26 15:53:23.070110,14.36783
2021-05-26 15:53:23.085740,18.28243
2021-05-26 15:53:23.101360,20.45807
2021-05-26 15:53:23.116990,21.48343
2021-05-26 15:53:23.132610,21.90362
2021-05-26 15:53:23.148240,22.1538
2021-05-26 15:53:23.163870,22.51488
2021-05-26 15:53:23.179490,23.10691
2021-05-26 15:53:23.195120,23.93375
2021-05-26 15:53:23.210740,24.93653
2021-05-26 15:53:23.226370,26.03285
2021-05-26 15:53:23.241990,27.13707
2021-05-26 15:53:23.257620,28.21799
2021-05-26 15:53:23.273250,29.2157
2021-05-26 15:53:23.288870,30.07412
2021-05-26 15:53:23.304500,30.71571
2021-05-26 15:53:23.320120,31.03428
2021-05-26 15:53:23.335750,30.88406
2021-05-26 15:53:23.351370,30.15257
2021-05-26 15:53:23.367000,28.75216
2021-05-26 15:53:23.382630,26.6554
2021-05-26 15:53:23.398250,23.91006
2021-05-26 15:53:23.413880,20.63313
2021-05-26 15:53:23.429500,16.98595
2021-05-26 15:53:23.445130,13.16662
2021-05-26 15:53:23.460750,9.346573
2021-05-26 15:53:23.476380,5.59407
2021-05-26 15:53:23.492010,1.872131
2021-05-26 15:53:23.507630,-1.917107
2021-05-26 15:53:23.523260,-5.839279
2021-05-26 15:53:23.538880,-9.836952
2021-05-26 15:53:23.554510,-13.71726
2021-05-26 15:53:23.570130,-17.27254
2021-05-26 15:53:23.585760,-20.39945
2021-05-26 15:53:23.601390,-23.24218
2021-05-26 15:53:23.617010,-26.19016
2021-05-26 15:53:23.632640,-29.72663
2021-05-26 15:53:23.648260,-34.22018
2021-05-26 15:53:23.663890,-39.6913
2021-05-26 15:53:23.679510,-45.62439
2021-05-26 15:53:23.695140,-51.03199
2021-05-26 15:53:23.710770,-54.65076
2021-05-26 15:53:23.726390,-55.30362
2021-05-26 15:53:23.742020,-52.28828
2021-05-26 15:53:23.757640,-45.63782
2021-05-26 15:53:23.773270,-36.13876
2021-05-26 15:53:23.788890,-25.11855
2021-05-26 15:53:23.804520,-14.02887
2021-05-26 15:53:23.820150,-4.093094
2021-05-26 15:53:23.835770,4.001778
2021-05-26 15:53:23.851400,10.02017
2021-05-26 15:53:23.882650,16.47813
2021-05-26 15:53:23.898270,17.42472
2021-05-26 15:53:23.913900,17.20587
2021-05-26 15:53:23.929530,16.16622
2021-05-26 15:53:23.945150,14.74985
2021-05-26 15:53:23.960780,13.44352
2021-05-26 15:53:23.976400,12.68351
2021-05-26 15:53:23.992030,12.65279
2021-05-26 15:53:24.007650,13.30363
2021-05-26 15:53:24.023280,14.35351
2021-05-26 15:53:24.038910,15.46179
2021-05-26 15:53:24.054530,16.35451
2021-05-26 15:53:24.070160,16.88589
2021-05-26 15:53:24.085780,17.07906
2021-05-26 15:53:24.101410,16.97406
2021-05-26 15:53:24.117030,16.57037
2021-05-26 15:53:24.132660,15.71113
2021-05-26 15:53:24.148290,14.19926
2021-05-26 15:53:24.163910,11.83385
2021-05-26 15:53:24.179540,8.552231
2021-05-26 15:53:24.195160,4.502434
2021-05-26 15:53:24.210790,-0.002197266
2021-05-26 15:53:24.226410,-4.572876
2021-05-26 15:53:24.242040,-8.895279
2021-05-26 15:53:24.257670,-12.8145
2021-05-26 15:53:24.273290,-16.37793
2021-05-26 15:53:24.288920,-19.78487
2021-05-26 15:53:24.304540,-23.31351
2021-05-26 15:53:24.320170,-27.21815
2021-05-26 15:53:24.335790,-31.63803
2021-05-26 15:53:24.351420,-36.49715
2021-05-26 15:53:24.367050,-41.36121
2021-05-26 15:53:24.382670,-45.48211
2021-05-26 15:53:24.398300,-47.84866
2021-05-26 15:53:24.413920,-47.46328
2021-05-26 15:53:24.429550,-43.67873
2021-05-26 15:53:24.445170,-36.49852
2021-05-26 15:53:24.460800,-26.67157
2021-05-26 15:53:24.476430,-15.48374
2021-05-26 15:53:24.492050,-4.414761
2021-05-26 15:53:24.507680,5.294266
2021-05-26 15:53:24.523300,12.92837
2021-05-26 15:53:24.538930,18.35561
2021-05-26 15:53:24.554550,21.85342
2021-05-26 15:53:24.570180,23.90551
2021-05-26 15:53:24.585810,24.93208
2021-05-26 15:53:24.601430,25.20026
2021-05-26 15:53:24.617060,24.88337
2021-05-26 15:53:24.632680,24.10543
2021-05-26 15:53:24.648310,23.06272
2021-05-26 15:53:24.663930,22.05717
2021-05-26 15:53:24.679560,21.36885
2021-05-26 15:53:24.695190,21.179
2021-05-26 15:53:24.710810,21.46257
2021-05-26 15:53:24.726440,22.03176
2021-05-26 15:53:24.742060,22.61118
2021-05-26 15:53:24.757690,22.99798
2021-05-26 15:53:24.773310,23.14046
2021-05-26 15:53:24.788940,23.04797
2021-05-26 15:53:24.804570,22.66623
2021-05-26 15:53:24.820190,21.77619
2021-05-26 15:53:24.835820,20.02348
2021-05-26 15:53:24.851440,17.07376
2021-05-26 15:53:24.867070,12.86524
2021-05-26 15:53:24.882690,7.668256
2021-05-26 15:53:24.898320,2.0283
2021-05-26 15:53:24.913950,-3.435445
2021-05-26 15:53:24.929570,-8.281614
2021-05-26 15:53:24.945200,-12.43988
2021-05-26 15:53:24.960820,-16.18654
2021-05-26 15:53:24.976450,-20.02128
2021-05-26 15:53:24.992070,-24.49733
2021-05-26 15:53:25.007700,-29.97394
2021-05-26 15:53:25.038950,-43.51407
2021-05-26 15:53:25.054580,-50.11869
2021-05-26 15:53:25.070200,-54.95176
2021-05-26 15:53:25.085830,-56.67186
2021-05-26 15:53:25.101450,-54.35901
2021-05-26 15:53:25.117080,-47.88062
2021-05-26 15:53:25.132710,-37.96563
2021-05-26 15:53:25.148330,-26.03373
2021-05-26 15:53:25.163960,-13.76618
2021-05-26 15:53:25.179580,-2.647367
2021-05-26 15:53:25.195210,6.415522
2021-05-26 15:53:25.210840,13.17571
2021-05-26 15:53:25.226460,17.94522
2021-05-26 15:53:25.242090,21.31873
2021-05-26 15:53:25.257710,23.82646
2021-05-26 15:53:25.273340,25.80178
2021-05-26 15:53:25.288960,27.31102
2021-05-26 15:53:25.304590,28.2878
2021-05-26 15:53:25.320220,28.71381
2021-05-26 15:53:25.335840,28.77676
2021-05-26 15:53:25.351470,28.78692
2021-05-26 15:53:25.367090,29.11367
2021-05-26 15:53:25.382720,29.94275
2021-05-26 15:53:25.398340,31.16602
2021-05-26 15:53:25.413970,32.43886
2021-05-26 15:53:25.429600,33.36239
2021-05-26 15:53:25.445220,33.68504
2021-05-26 15:53:25.460850,33.39334
2021-05-26 15:53:25.476470,32.67521
2021-05-26 15:53:25.492100,31.66555
2021-05-26 15:53:25.507720,30.32322
2021-05-26 15:53:25.523350,28.4077
2021-05-26 15:53:25.538980,25.58591
2021-05-26 15:53:25.554600,21.68674
2021-05-26 15:53:25.570230,16.81759
2021-05-26 15:53:25.585850,11.37105
2021-05-26 15:53:25.601480,5.884365
2021-05-26 15:53:25.617100,0.799324
2021-05-26 15:53:25.632730,-3.68045
2021-05-26 15:53:25.648360,-7.645233
2021-05-26 15:53:25.663980,-11.37927
2021-05-26 15:53:25.679610,-15.25307
2021-05-26 15:53:25.695230,-19.56477
2021-05-26 15:53:25.710860,-24.51816
2021-05-26 15:53:25.726480,-30.19308
2021-05-26 15:53:25.742110,-36.4236
2021-05-26 15:53:25.757740,-42.74374
2021-05-26 15:53:25.773360,-48.27197
2021-05-26 15:53:25.788990,-51.83567
2021-05-26 15:53:25.804610,-52.26097
2021-05-26 15:53:25.820240,-48.82767
2021-05-26 15:53:25.835860,-41.57563
2021-05-26 15:53:25.851490,-31.41672
2021-05-26 15:53:25.867120,-19.85383
2021-05-26 15:53:25.882740,-8.483154
2021-05-26 15:53:25.898370,1.478821
2021-05-26 15:53:25.913990,9.439972
2021-05-26 15:53:25.929620,15.38461
2021-05-26 15:53:25.945240,19.61001
2021-05-26 15:53:25.960870,22.42593
2021-05-26 15:53:25.976500,24.08398
2021-05-26 15:53:25.992120,24.7613
2021-05-26 15:53:26.007750,24.65327
2021-05-26 15:53:26.039000,23.21272
2021-05-26 15:53:26.054620,22.45263
2021-05-26 15:53:26.070250,21.88453
2021-05-26 15:53:26.085880,21.52947
2021-05-26 15:53:26.101500,21.33862
2021-05-26 15:53:26.117130,21.23389
2021-05-26 15:53:26.132750,21.12905
2021-05-26 15:53:26.148380,20.92403
2021-05-26 15:53:26.164000,20.47483
2021-05-26 15:53:26.179630,19.59529
2021-05-26 15:53:26.195260,18.1097
2021-05-26 15:53:26.210880,15.92156
2021-05-26 15:53:26.226510,13.01887
2021-05-26 15:53:26.242130,9.508461
2021-05-26 15:53:26.257760,5.577332
2021-05-26 15:53:26.273380,1.447128
2021-05-26 15:53:26.289010,-2.695381
2021-05-26 15:53:26.304640,-6.742836
2021-05-26 15:53:26.320260,-10.72427
2021-05-26 15:53:26.335890,-14.82018
2021-05-26 15:53:26.351510,-19.30633
2021-05-26 15:53:26.367140,-24.4579
2021-05-26 15:53:26.382760,-30.30374
2021-05-26 15:53:26.398390,-36.45156
2021-05-26 15:53:26.414020,-42.02224
2021-05-26 15:53:26.429640,-45.80963
2021-05-26 15:53:26.445270,-46.63614
2021-05-26 15:53:26.460890,-43.76538
2021-05-26 15:53:26.476520,-37.22234
2021-05-26 15:53:26.492140,-27.83849
2021-05-26 15:53:26.507770,-17.02713
2021-05-26 15:53:26.523400,-6.323311
2021-05-26 15:53:26.539020,3.033615
2021-05-26 15:53:26.554650,10.37159
2021-05-26 15:53:26.570270,15.61304
2021-05-26 15:53:26.585900,19.07872
2021-05-26 15:53:26.601520,21.2143
2021-05-26 15:53:26.617150,22.38564
2021-05-26 15:53:26.632780,22.78049
2021-05-26 15:53:26.648400,22.46167
2021-05-26 15:53:26.664030,21.54203
2021-05-26 15:53:26.679650,20.2747
2021-05-26 15:53:26.695280,19.04797
2021-05-26 15:53:26.710900,18.28746
2021-05-26 15:53:26.726530,18.24609
2021-05-26 15:53:26.742160,18.86863
2021-05-26 15:53:26.757780,19.78585
2021-05-26 15:53:26.773410,20.43425
2021-05-26 15:53:26.789030,20.25822
2021-05-26 15:53:26.804660,18.93356
2021-05-26 15:53:26.820280,16.44769
2021-05-26 15:53:26.835910,13.02948
2021-05-26 15:53:26.851540,9.025513
2021-05-26 15:53:26.867160,4.699997
2021-05-26 15:53:26.882790,0.1943359
2021-05-26 15:53:26.898410,-4.502869
2021-05-26 15:53:26.914040,-9.450211
2021-05-26 15:53:26.929660,-14.72232
2021-05-26 15:53:26.945290,-20.37495
2021-05-26 15:53:26.960920,-26.40678
2021-05-26 15:53:26.976540,-32.71394
2021-05-26 15:53:26.992170,-38.88223
2021-05-26 15:53:27.007790,-44.20235
2021-05-26 15:53:27.023420,-47.65344
2021-05-26 15:53:27.039040,-48.22629
2021-05-26 15:53:27.054670,-45.23311
2021-05-26 15:53:27.070300,-38.6962
2021-05-26 15:53:27.085920,-29.38327
2021-05-26 15:53:27.101550,-18.6201
2021-05-26 15:53:27.117170,-7.862534
2021-05-26 15:53:27.132800,1.76442
2021-05-26 15:53:27.148420,9.652451
2021-05-26 15:53:27.164050,15.69685
2021-05-26 15:53:27.179680,20.07333
2021-05-26 15:53:27.195300,23.02321
2021-05-26 15:53:27.210930,24.72969
2021-05-26 15:53:27.226550,25.3067
2021-05-26 15:53:27.242180,24.90625
2021-05-26 15:53:27.273430,22.37236
2021-05-26 15:53:27.289060,21.03729
2021-05-26 15:53:27.304680,20.10315
2021-05-26 15:53:27.320310,19.64268
2021-05-26 15:53:27.335930,19.4566
2021-05-26 15:53:27.351560,19.17741
2021-05-26 15:53:27.367180,18.36183
2021-05-26 15:53:27.382810,16.77513
2021-05-26 15:53:27.398440,14.45732
2021-05-26 15:53:27.414060,11.71799
2021-05-26 15:53:27.429690,8.944672
2021-05-26 15:53:27.445310,6.397324
2021-05-26 15:53:27.460940,4.073929
2021-05-26 15:53:27.476570,1.681747
2021-05-26 15:53:27.492190,-1.17511
2021-05-26 15:53:27.507820,-4.869873
2021-05-26 15:53:27.523440,-9.599396
2021-05-26 15:53:27.539070,-15.34714
2021-05-26 15:53:27.554690,-21.83835
2021-05-26 15:53:27.570320,-28.5549
2021-05-26 15:53:27.585950,-34.66176
2021-05-26 15:53:27.601570,-39.09084
2021-05-26 15:53:27.617200,-40.76593
2021-05-26 15:53:27.632820,-38.90793
2021-05-26 15:53:27.648450,-33.39748
2021-05-26 15:53:27.664070,-24.88274
2021-05-26 15:53:27.679700,-14.60727
2021-05-26 15:53:27.695330,-4.09111
2021-05-26 15:53:27.710950,5.409393
2021-05-26 15:53:27.726580,13.16252
2021-05-26 15:53:27.742200,19.07846
2021-05-26 15:53:27.757830,23.46581
2021-05-26 15:53:27.773450,26.75371
2021-05-26 15:53:27.789080,29.27141
2021-05-26 15:53:27.804710,31.15736
2021-05-26 15:53:27.820330,32.47919
2021-05-26 15:53:27.835960,33.29103
2021-05-26 15:53:27.851580,33.75684
2021-05-26 15:53:27.867210,34.05588
2021-05-26 15:53:27.882830,34.33772
2021-05-26 15:53:27.898460,34.58141
2021-05-26 15:53:27.914090,34.65733
2021-05-26 15:53:27.929710,34.3459
2021-05-26 15:53:27.945340,33.52489
2021-05-26 15:53:27.960960,32.22063
2021-05-26 15:53:27.976590,30.58656
2021-05-26 15:53:27.992210,28.7755
2021-05-26 15:53:28.007840,26.83089
2021-05-26 15:53:28.023470,24.5834
2021-05-26 15:53:28.039090,21.74214
2021-05-26 15:53:28.054720,18.06277
2021-05-26 15:53:28.070340,13.49361
2021-05-26 15:53:28.085970,8.266281
2021-05-26 15:53:28.101590,2.817398
2021-05-26 15:53:28.117220,-2.357285
2021-05-26 15:53:28.132850,-6.902786
2021-05-26 15:53:28.148470,-10.72983
2021-05-26 15:53:28.164100,-14.07362
2021-05-26 15:53:28.179720,-17.44221
2021-05-26 15:53:28.195350,-21.4175
2021-05-26 15:53:28.210970,-26.47678
2021-05-26 15:53:28.226600,-32.74957
2021-05-26 15:53:28.242230,-39.79094
2021-05-26 15:53:28.257850,-46.54417
2021-05-26 15:53:28.273480,-51.51379
2021-05-26 15:53:28.289100,-53.15692
2021-05-26 15:53:28.320350,-43.28131
2021-05-26 15:53:28.335980,-32.56136
2021-05-26 15:53:28.351610,-19.95381
2021-05-26 15:53:28.367230,-7.306931
2021-05-26 15:53:28.382860,3.923065
2021-05-26 15:53:28.398480,13.02283
2021-05-26 15:53:28.414110,20.05717
2021-05-26 15:53:28.429730,25.51363
2021-05-26 15:53:28.445360,29.8947
2021-05-26 15:53:28.460990,33.46869
2021-05-26 15:53:28.476610,36.22691
2021-05-26 15:53:28.492240,38.03835
2021-05-26 15:53:28.507860,38.88875
2021-05-26 15:53:28.523490,38.95805
2021-05-26 15:53:28.539110,38.59589
2021-05-26 15:53:28.554740,38.16719
2021-05-26 15:53:28.570370,37.85165
2021-05-26 15:53:28.585990,37.60355
2021-05-26 15:53:28.601620,37.20036
2021-05-26 15:53:28.617240,36.41425
2021-05-26 15:53:28.632870,35.09363
2021-05-26 15:53:28.648490,33.30525
2021-05-26 15:53:28.664120,31.24727
2021-05-26 15:53:28.679750,29.12401
2021-05-26 15:53:28.695370,27.0639
2021-05-26 15:53:28.711000,25.03229
2021-05-26 15:53:28.726620,22.8297
2021-05-26 15:53:28.742250,20.19908
2021-05-26 15:53:28.757870,16.87154
2021-05-26 15:53:28.773500,12.69547
2021-05-26 15:53:28.789130,7.735779
2021-05-26 15:53:28.804750,2.282639
2021-05-26 15:53:28.820380,-3.240494
2021-05-26 15:53:28.836000,-8.388535
2021-05-26 15:53:28.851630,-12.92538
2021-05-26 15:53:28.867250,-16.85562
2021-05-26 15:53:28.882880,-20.4445
2021-05-26 15:53:28.898510,-24.06052
2021-05-26 15:53:28.914130,-28.0506
2021-05-26 15:53:28.929760,-32.54185
2021-05-26 15:53:28.945380,-37.5146
2021-05-26 15:53:28.961010,-42.78041
2021-05-26 15:53:28.976630,-47.9872
2021-05-26 15:53:28.992260,-52.60582
2021-05-26 15:53:29.007890,-55.8486
2021-05-26 15:53:29.023510,-56.76047
2021-05-26 15:53:29.039140,-54.45398
2021-05-26 15:53:29.054760,-48.44034
2021-05-26 15:53:29.070390,-38.90242
2021-05-26 15:53:29.086010,-26.81313
2021-05-26 15:53:29.101640,-13.63541
2021-05-26 15:53:29.117270,-0.9108734
2021-05-26 15:53:29.132890,10.16008
2021-05-26 15:53:29.148520,18.95297
2021-05-26 15:53:29.164140,25.40952
2021-05-26 15:53:29.179770,29.79855
2021-05-26 15:53:29.195390,32.56065
2021-05-26 15:53:29.211020,34.13585
2021-05-26 15:53:29.226650,34.89711
2021-05-26 15:53:29.242270,35.19547
2021-05-26 15:53:29.257900,35.36281
2021-05-26 15:53:29.273520,35.68724
2021-05-26 15:53:29.289150,36.37386
2021-05-26 15:53:29.304770,37.50397
2021-05-26 15:53:29.320400,38.99738
2021-05-26 15:53:29.336030,40.66762
2021-05-26 15:53:29.351650,42.2968
2021-05-26 15:53:29.367280,43.67065
2021-05-26 15:53:29.382900,44.61975
2021-05-26 15:53:29.398530,45.04239
2021-05-26 15:53:29.414150,44.83408
2021-05-26 15:53:29.429780,43.86401
2021-05-26 15:53:29.461030,39.13811
2021-05-26 15:53:29.476660,35.36182
2021-05-26 15:53:29.492280,30.95189
2021-05-26 15:53:29.507910,26.33015
2021-05-26 15:53:29.523530,21.90584
2021-05-26 15:53:29.539160,17.92813
2021-05-26 15:53:29.554790,14.38567
2021-05-26 15:53:29.570410,11.04887
2021-05-26 15:53:29.586040,7.557312
2021-05-26 15:53:29.601660,3.615005
2021-05-26 15:53:29.617290,-0.8818665
2021-05-26 15:53:29.632920,-5.830116
2021-05-26 15:53:29.648540,-10.95404
2021-05-26 15:53:29.664170,-15.95084
2021-05-26 15:53:29.679790,-20.61526
2021-05-26 15:53:29.695420,-24.86115
2021-05-26 15:53:29.711040,-28.75058
2021-05-26 15:53:29.726670,-32.43182
2021-05-26 15:53:29.742300,-36.09875
2021-05-26 15:53:29.757920,-39.90115
2021-05-26 15:53:29.773550,-43.84016
2021-05-26 15:53:29.789170,-47.68028
2021-05-26 15:53:29.804800,-50.90501
2021-05-26 15:53:29.820420,-52.69774
2021-05-26 15:53:29.836050,-52.17971
2021-05-26 15:53:29.851680,-48.6819
2021-05-26 15:53:29.867300,-42.06821
2021-05-26 15:53:29.882930,-32.90889
2021-05-26 15:53:29.898550,-22.33844
2021-05-26 15:53:29.914180,-11.68632
2021-05-26 15:53:29.929800,-2.032707
2021-05-26 15:53:29.945430,6.095154
2021-05-26 15:53:29.961060,12.71083
2021-05-26 15:53:29.976680,18.11396
2021-05-26 15:53:29.992310,22.56475
2021-05-26 15:53:30.007930,26.12529
2021-05-26 15:53:30.023560,28.71036
2021-05-26 15:53:30.039180,30.248
2021-05-26 15:53:30.054810,30.88751
2021-05-26 15:53:30.070440,30.98692
2021-05-26 15:53:30.086060,30.95612
2021-05-26 15:53:30.101690,31.06923
2021-05-26 15:53:30.117310,31.38866
2021-05-26 15:53:30.132940,31.79575
2021-05-26 15:53:30.148560,32.12171
2021-05-26 15:53:30.164190,32.23717
2021-05-26 15:53:30.179820,32.08813
2021-05-26 15:53:30.195440,31.66536
2021-05-26 15:53:30.211070,30.93933
2021-05-26 15:53:30.226690,29.89042
2021-05-26 15:53:30.242320,28.4769
2021-05-26 15:53:30.257940,26.69791
2021-05-26 15:53:30.273570,24.58161
2021-05-26 15:53:30.289200,22.19403
2021-05-26 15:53:30.304820,19.5755
2021-05-26 15:53:30.320450,16.74408
2021-05-26 15:53:30.336070,13.73491
2021-05-26 15:53:30.351700,10.61471
2021-05-26 15:53:30.367320,7.540901
2021-05-26 15:53:30.382950,4.707075
2021-05-26 15:53:30.398580,2.249693
2021-05-26 15:53:30.414200,0.1477089
2021-05-26 15:53:30.429830,-1.753983
2021-05-26 15:53:30.445450,-3.731083
2021-05-26 15:53:30.461080,-6.059204
2021-05-26 15:53:30.476700,-8.903221
2021-05-26 15:53:30.507960,-15.95931
2021-05-26 15:53:30.523580,-19.76204
2021-05-26 15:53:30.539210,-23.43912
2021-05-26 15:53:30.554830,-26.84336
2021-05-26 15:53:30.570460,-29.94252
2021-05-26 15:53:30.586080,-32.80023
2021-05-26 15:53:30.601710,-35.62474
2021-05-26 15:53:30.617340,-38.6806
2021-05-26 15:53:30.632960,-42.29829
2021-05-26 15:53:30.648590,-46.78994
2021-05-26 15:53:30.664210,-52.21513
2021-05-26 15:53:30.679840,-58.25059
2021-05-26 15:53:30.695460,-64.03724
2021-05-26 15:53:30.711090,-68.33036
2021-05-26 15:53:30.726720,-69.79043
2021-05-26 15:53:30.742340,-67.43531
2021-05-26 15:53:30.757970,-60.99348
2021-05-26 15:53:30.773590,-51.08651
2021-05-26 15:53:30.789220,-39.04333
2021-05-26 15:53:30.804840,-26.51608
2021-05-26 15:53:30.820470,-14.99597
2021-05-26 15:53:30.836100,-5.406822
2021-05-26 15:53:30.851720,1.956314
2021-05-26 15:53:30.867350,7.332283
2021-05-26 15:53:30.882970,11.19841
2021-05-26 15:53:30.898600,14.03043
2021-05-26 15:53:30.914220,16.10883
2021-05-26 15:53:30.929850,17.60984
2021-05-26 15:53:30.945480,18.69099
2021-05-26 15:53:30.961100,19.55167
2021-05-26 15:53:30.976730,20.43681
2021-05-26 15:53:30.992350,21.54494
2021-05-26 15:53:31.007980,22.91151
2021-05-26 15:53:31.023600,24.40125
2021-05-26 15:53:31.039230,25.82449
2021-05-26 15:53:31.054860,26.99664
2021-05-26 15:53:31.070480,27.86676
2021-05-26 15:53:31.086110,28.45674
2021-05-26 15:53:31.101730,28.79364
2021-05-26 15:53:31.117360,28.80437
2021-05-26 15:53:31.132980,28.37549
2021-05-26 15:53:31.148610,27.30228
2021-05-26 15:53:31.164240,25.45622
2021-05-26 15:53:31.179860,22.80933
2021-05-26 15:53:31.195490,19.45676
2021-05-26 15:53:31.211110,15.59447
2021-05-26 15:53:31.226740,11.48212
2021-05-26 15:53:31.242360,7.402985
2021-05-26 15:53:31.257990,3.596405
2021-05-26 15:53:31.273620,0.2206573
2021-05-26 15:53:31.289240,-2.701187
2021-05-26 15:53:31.304870,-5.279816
2021-05-26 15:53:31.320490,-7.672821
2021-05-26 15:53:31.336120,-10.0529
2021-05-26 15:53:31.351740,-12.50816
2021-05-26 15:53:31.367370,-15.06732
2021-05-26 15:53:31.383000,-17.72955
2021-05-26 15:53:31.398620,-20.51306
2021-05-26 15:53:31.414250,-23.4789
2021-05-26 15:53:31.429870,-26.76035
2021-05-26 15:53:31.445500,-30.51326
2021-05-26 15:53:31.461120,-34.89705
2021-05-26 15:53:31.476750,-39.95508
2021-05-26 15:53:31.492380,-45.42897
2021-05-26 15:53:31.508000,-50.63803
2021-05-26 15:53:31.523630,-54.52225
2021-05-26 15:53:31.539250,-55.8656
2021-05-26 15:53:31.554880,-53.748
2021-05-26 15:53:31.570500,-47.91342
2021-05-26 15:53:31.586130,-38.96573
2021-05-26 15:53:31.601760,-28.16808
2021-05-26 15:53:31.617380,-17.06221
2021-05-26 15:53:31.633010,-6.959717
2021-05-26 15:53:31.648630,1.355667
2021-05-26 15:53:31.664260,7.638824
2021-05-26 15:53:31.679880,12.06032
2021-05-26 15:53:31.695510,14.95935
2021-05-26 15:53:31.711140,16.70851
2021-05-26 15:53:31.726760,17.64632
2021-05-26 15:53:31.742390,18.12097
2021-05-26 15:53:31.758010,18.44749
2021-05-26 15:53:31.773640,18.89064
2021-05-26 15:53:31.789260,19.6179
2021-05-26 15:53:31.804890,20.64795
2021-05-26 15:53:31.820520,21.93102
2021-05-26 15:53:31.836140,23.33235
2021-05-26 15:53:31.851770,24.73828
2021-05-26 15:53:31.867390,26.00175
2021-05-26 15:53:31.883020,27.03001
2021-05-26 15:53:31.898640,27.71024
2021-05-26 15:53:31.914270,27.9382
2021-05-26 15:53:31.929900,27.59384
2021-05-26 15:53:31.945520,26.55544
2021-05-26 15:53:31.961150,24.74011
2021-05-26 15:53:31.976770,22.14798
2021-05-26 15:53:31.992400,18.91974
2021-05-26 15:53:32.008020,15.27065
2021-05-26 15:53:32.023650,11.52322
2021-05-26 15:53:32.039280,7.921051
2021-05-26 15:53:32.054900,4.565292
2021-05-26 15:53:32.070530,1.393967
2021-05-26 15:53:32.086150,-1.775894
2021-05-26 15:53:32.101780,-5.131439
2021-05-26 15:53:32.117400,-8.741547
2021-05-26 15:53:32.133030,-12.49919
2021-05-26 15:53:32.148660,-16.20352
2021-05-26 15:53:32.164280,-19.64172
2021-05-26 15:53:32.179910,-22.70767
2021-05-26 15:53:32.195530,-25.45926
2021-05-26 15:53:32.211160,-28.08957
2021-05-26 15:53:32.226780,-30.88705
2021-05-26 15:53:32.242410,-34.15668
2021-05-26 15:53:32.258040,-38.10568
2021-05-26 15:53:32.273660,-42.72025
2021-05-26 15:53:32.289290,-47.67239
2021-05-26 15:53:32.304910,-52.23526
2021-05-26 15:53:32.320540,-55.39642
2021-05-26 15:53:32.336170,-56.07565
2021-05-26 15:53:32.351790,-53.4559
2021-05-26 15:53:32.367420,-47.33014
2021-05-26 15:53:32.383040,-38.20602
2021-05-26 15:53:32.398670,-27.15314
2021-05-26 15:53:32.414290,-15.51443
2021-05-26 15:53:32.429920,-4.483276
2021-05-26 15:53:32.445550,5.152069
2021-05-26 15:53:32.461170,13.06155
2021-05-26 15:53:32.476800,19.29346
2021-05-26 15:53:32.492420,24.07147
2021-05-26 15:53:32.508050,27.61655
2021-05-26 15:53:32.523670,30.11374
2021-05-26 15:53:32.539300,31.73233
2021-05-26 15:53:32.554930,32.69107
2021-05-26 15:53:32.570550,33.27698
2021-05-26 15:53:32.586180,33.84424
2021-05-26 15:53:32.601800,34.7103
2021-05-26 15:53:32.617430,36.13474
2021-05-26 15:53:32.633050,38.20175
2021-05-26 15:53:32.648680,40.81512
2021-05-26 15:53:32.664310,43.71292
2021-05-26 15:53:32.679930,46.50061
2021-05-26 15:53:32.695560,48.73306
2021-05-26 15:53:32.711180,50.03204
2021-05-26 15:53:32.726810,50.14371
2021-05-26 15:53:32.742430,48.9949
2021-05-26 15:53:32.773690,43.59329
2021-05-26 15:53:32.789310,39.86368
2021-05-26 15:53:32.804940,35.81375
2021-05-26 15:53:32.820560,31.65475
2021-05-26 15:53:32.836190,27.55829
2021-05-26 15:53:32.851810,23.65912
2021-05-26 15:53:32.867440,20.04565
2021-05-26 15:53:32.883070,16.70731
2021-05-26 15:53:32.898690,13.55374
2021-05-26 15:53:32.914320,10.444
2021-05-26 15:53:32.929940,7.282318
2021-05-26 15:53:32.945570,4.116364
2021-05-26 15:53:32.961190,1.114502
2021-05-26 15:53:32.976820,-1.513519
2021-05-26 15:53:32.992450,-3.66217
2021-05-26 15:53:33.008070,-5.463928
2021-05-26 15:53:33.023700,-7.237122
2021-05-26 15:53:33.039320,-9.428772
2021-05-26 15:53:33.054950,-12.45227
2021-05-26 15:53:33.070570,-16.53253
2021-05-26 15:53:33.086200,-21.64038
2021-05-26 15:53:33.101830,-27.50177
2021-05-26 15:53:33.117450,-33.50159
2021-05-26 15:53:33.133080,-38.76776
2021-05-26 15:53:33.148700,-42.30441
2021-05-26 15:53:33.164330,-43.20129
2021-05-26 15:53:33.179950,-40.90717
2021-05-26 15:53:33.195580,-35.52429
2021-05-26 15:53:33.211210,-27.78833
2021-05-26 15:53:33.226830,-18.93774
2021-05-26 15:53:33.242460,-10.34036
2021-05-26 15:53:33.258080,-3.078583
2021-05-26 15:53:33.273710,2.246094
2021-05-26 15:53:33.289330,5.605408
2021-05-26 15:53:33.304960,7.34668
2021-05-26 15:53:33.320590,7.948944
2021-05-26 15:53:33.336210,7.838959
2021-05-26 15:53:33.351840,7.30246
2021-05-26 15:53:33.367460,6.486328
2021-05-26 15:53:33.383090,5.515442
2021-05-26 15:53:33.398710,4.538971
2021-05-26 15:53:33.414340,3.725189
2021-05-26 15:53:33.429970,3.195587
2021-05-26 15:53:33.445590,2.970886
2021-05-26 15:53:33.461220,2.964874
2021-05-26 15:53:33.476840,3.013824
2021-05-26 15:53:33.492470,3.01001
2021-05-26 15:53:33.508090,2.872528
2021-05-26 15:53:33.523720,2.594696
2021-05-26 15:53:33.539350,2.153168
2021-05-26 15:53:33.554970,1.484558
2021-05-26 15:53:33.570600,0.482666
2021-05-26 15:53:33.586220,-0.9464417
2021-05-26 15:53:33.601850,-2.838837
2021-05-26 15:53:33.617470,-5.13092
2021-05-26 15:53:33.633100,-7.645508
2021-05-26 15:53:33.648730,-10.18939
2021-05-26 15:53:33.664350,-12.5972
2021-05-26 15:53:33.679980,-14.78329
2021-05-26 15:53:33.695600,-16.78244
2021-05-26 15:53:33.711230,-18.70529
2021-05-26 15:53:33.726850,-20.75314
2021-05-26 15:53:33.742480,-23.09766
2021-05-26 15:53:33.758110,-25.8338
2021-05-26 15:53:33.773730,-28.85443
2021-05-26 15:53:33.789360,-31.8989
2021-05-26 15:53:33.804980,-34.63794
2021-05-26 15:53:33.820610,-36.85358
2021-05-26 15:53:33.836230,-38.58768
2021-05-26 15:53:33.851860,-40.11389
2021-05-26 15:53:33.867490,-41.94156
2021-05-26 15:53:33.883110,-44.52292
2021-05-26 15:53:33.898740,-48.14767
2021-05-26 15:53:33.914360,-52.6889
2021-05-26 15:53:33.929990,-57.61139
2021-05-26 15:53:33.945610,-61.9968
2021-05-26 15:53:33.961240,-64.73499
2021-05-26 15:53:33.976870,-64.77997
2021-05-26 15:53:33.992490,-61.46475
2021-05-26 15:53:34.008120,-54.71893
2021-05-26 15:53:34.023740,-45.12979
2021-05-26 15:53:34.039370,-33.83881
2021-05-26 15:53:34.054990,-22.147
2021-05-26 15:53:34.070620,-11.2334
2021-05-26 15:53:34.086250,-1.881958
2021-05-26 15:53:34.101870,5.601593
2021-05-26 15:53:34.117500,11.26559
2021-05-26 15:53:34.133120,15.35376
2021-05-26 15:53:34.148750,18.1561
2021-05-26 15:53:34.164370,19.98148
2021-05-26 15:53:34.180000,21.11209
2021-05-26 15:53:34.195630,21.88065
2021-05-26 15:53:34.211250,22.57587
2021-05-26 15:53:34.226880,23.39081
2021-05-26 15:53:34.242500,24.4072
2021-05-26 15:53:34.258130,25.52805
2021-05-26 15:53:34.273750,26.58646
2021-05-26 15:53:34.289380,27.40036
2021-05-26 15:53:34.305010,27.85687
2021-05-26 15:53:34.320630,27.92053
2021-05-26 15:53:34.336260,27.6286
2021-05-26 15:53:34.351880,27.02344
2021-05-26 15:53:34.367510,26.06937
2021-05-26 15:53:34.383130,24.70129
2021-05-26 15:53:34.398760,22.76764
2021-05-26 15:53:34.414390,20.20905
2021-05-26 15:53:34.430010,17.04721
2021-05-26 15:53:34.445640,13.4545
2021-05-26 15:53:34.461260,9.700226
2021-05-26 15:53:34.476890,6.04776
2021-05-26 15:53:34.492520,2.680725
2021-05-26 15:53:34.508140,-0.4371338
2021-05-26 15:53:34.523770,-3.477173
2021-05-26 15:53:34.539390,-6.701721
2021-05-26 15:53:34.555020,-10.25546
2021-05-26 15:53:34.570640,-14.14746
2021-05-26 15:53:34.586270,-18.17279
2021-05-26 15:53:34.601900,-22.05026
2021-05-26 15:53:34.617520,-25.54666
2021-05-26 15:53:34.633150,-28.57104
2021-05-26 15:53:34.648770,-31.2973
2021-05-26 15:53:34.664400,-34.04681
2021-05-26 15:53:34.680020,-37.28757
2021-05-26 15:53:34.695650,-41.33051
2021-05-26 15:53:34.711280,-46.16937
2021-05-26 15:53:34.726900,-51.35138
2021-05-26 15:53:34.742530,-55.94128
2021-05-26 15:53:34.758150,-58.75781
2021-05-26 15:53:34.773780,-58.68094
2021-05-26 15:53:34.789400,-55.07684
2021-05-26 15:53:34.805030,-48.03326
2021-05-26 15:53:34.820660,-38.3866
2021-05-26 15:53:34.836280,-27.44302
2021-05-26 15:53:34.851910,-16.57635
2021-05-26 15:53:34.867530,-6.868591
2021-05-26 15:53:34.883160,1.091248
2021-05-26 15:53:34.898780,7.187225
2021-05-26 15:53:34.914410,11.67313
2021-05-26 15:53:34.930040,14.89163
2021-05-26 15:53:34.945660,17.14673
2021-05-26 15:53:34.961290,18.63937
2021-05-26 15:53:34.976910,19.49088
2021-05-26 15:53:34.992540,19.82657
2021-05-26 15:53:35.008160,19.83029
2021-05-26 15:53:35.039420,19.92615
2021-05-26 15:53:35.055040,20.53006
2021-05-26 15:53:35.070670,21.60284
2021-05-26 15:53:35.086290,23.00653
2021-05-26 15:53:35.101920,24.46231
2021-05-26 15:53:35.117540,25.64655
2021-05-26 15:53:35.133170,26.32275
2021-05-26 15:53:35.148800,26.36838
2021-05-26 15:53:35.164420,25.78848
2021-05-26 15:53:35.180050,24.63724
2021-05-26 15:53:35.195670,23.005
2021-05-26 15:53:35.211300,20.97986
2021-05-26 15:53:35.226920,18.66342
2021-05-26 15:53:35.242550,16.12741
2021-05-26 15:53:35.258180,13.41489
2021-05-26 15:53:35.273800,10.52103
2021-05-26 15:53:35.289430,7.381989
2021-05-26 15:53:35.305050,3.932068
2021-05-26 15:53:35.320680,0.1514893
2021-05-26 15:53:35.336300,-3.929779
2021-05-26 15:53:35.351930,-8.196564
2021-05-26 15:53:35.367560,-12.49191
2021-05-26 15:53:35.383180,-16.69101
2021-05-26 15:53:35.398810,-20.767
2021-05-26 15:53:35.414430,-24.79974
2021-05-26 15:53:35.430060,-28.99808
2021-05-26 15:53:35.445680,-33.61075
2021-05-26 15:53:35.461310,-38.81714
2021-05-26 15:53:35.476940,-44.54871
2021-05-26 15:53:35.492560,-50.40466
2021-05-26 15:53:35.508190,-55.54349
2021-05-26 15:53:35.523810,-58.87854
2021-05-26 15:53:35.539440,-59.31644
2021-05-26 15:53:35.555060,-56.13721
2021-05-26 15:53:35.570690,-49.26904
2021-05-26 15:53:35.586320,-39.35095
2021-05-26 15:53:35.601940,-27.59814
2021-05-26 15:53:35.617570,-15.43015
2021-05-26 15:53:35.633190,-4.155518
2021-05-26 15:53:35.648820,5.351532
2021-05-26 15:53:35.664440,12.71558
2021-05-26 15:53:35.680070,18.00189
2021-05-26 15:53:35.695700,21.52908
2021-05-26 15:53:35.711320,23.65988
2021-05-26 15:53:35.726950,24.75247
2021-05-26 15:53:35.742570,25.07501
2021-05-26 15:53:35.758200,24.91605
2021-05-26 15:53:35.773820,24.57773
2021-05-26 15:53:35.789450,24.40024
2021-05-26 15:53:35.805080,24.65344
2021-05-26 15:53:35.820700,25.48651
2021-05-26 15:53:35.836330,26.85739
2021-05-26 15:53:35.851950,28.50577
2021-05-26 15:53:35.867580,30.11121
2021-05-26 15:53:35.883200,31.34863
2021-05-26 15:53:35.898830,32.03415
2021-05-26 15:53:35.914460,32.12958
2021-05-26 15:53:35.930080,31.72183
2021-05-26 15:53:35.945710,30.90744
2021-05-26 15:53:35.961330,29.70789
2021-05-26 15:53:35.976960,28.0881
2021-05-26 15:53:35.992580,25.92953
2021-05-26 15:53:36.008210,23.1626
2021-05-26 15:53:36.023840,19.76086
2021-05-26 15:53:36.039460,15.78918
2021-05-26 15:53:36.055090,11.3652
2021-05-26 15:53:36.070710,6.659058
2021-05-26 15:53:36.086340,1.830383
2021-05-26 15:53:36.101960,-2.972443
2021-05-26 15:53:36.117590,-7.645447
2021-05-26 15:53:36.133220,-12.16116
2021-05-26 15:53:36.148840,-16.54037
2021-05-26 15:53:36.164470,-20.88245
2021-05-26 15:53:36.180090,-25.31836
2021-05-26 15:53:36.195720,-30.00504
2021-05-26 15:53:36.211340,-35.08545
2021-05-26 15:53:36.226970,-40.64273
2021-05-26 15:53:36.242600,-46.6655
2021-05-26 15:53:36.258220,-52.88275
2021-05-26 15:53:36.273850,-58.77457
2021-05-26 15:53:36.289470,-63.51074
2021-05-26 15:53:36.305100,-66.13742
2021-05-26 15:53:36.320720,-65.79907
2021-05-26 15:53:36.336350,-61.98752
2021-05-26 15:53:36.351980,-54.763
2021-05-26 15:53:36.367600,-44.75186
2021-05-26 15:53:36.383230,-33.01694
2021-05-26 15:53:36.398850,-20.76347
2021-05-26 15:53:36.414480,-9.115128
2021-05-26 15:53:36.430100,1.139496
2021-05-26 15:53:36.445730,9.607788
2021-05-26 15:53:36.461360,16.23982
2021-05-26 15:53:36.476980,21.27766
2021-05-26 15:53:36.492610,25.08255
2021-05-26 15:53:36.508230,28.00389
2021-05-26 15:53:36.523860,30.26508
2021-05-26 15:53:36.539480,31.98611
2021-05-26 15:53:36.555110,33.21317
2021-05-26 15:53:36.570740,34.0432
2021-05-26 15:53:36.586360,34.67836
2021-05-26 15:53:36.601990,35.3625
2021-05-26 15:53:36.617610,36.31221
2021-05-26 15:53:36.633240,37.57167
2021-05-26 15:53:36.648860,38.99329
2021-05-26 15:53:36.664490,40.25931
2021-05-26 15:53:36.680120,41.05963
2021-05-26 15:53:36.695740,41.21069
2021-05-26 15:53:36.711370,40.68927
2021-05-26 15:53:36.726990,39.59778
2021-05-26 15:53:36.742620,38.02029
2021-05-26 15:53:36.758240,35.96242
2021-05-26 15:53:36.773870,33.31152
2021-05-26 15:53:36.789500,29.99197
2021-05-26 15:53:36.805120,26.00201
2021-05-26 15:53:36.820750,21.48715
2021-05-26 15:53:36.836370,16.65392
2021-05-26 15:53:36.852000,11.7155
2021-05-26 15:53:36.867630,6.839706
2021-05-26 15:53:36.883250,2.097885
2021-05-26 15:53:36.898880,-2.432922
2021-05-26 15:53:36.914500,-6.696762
2021-05-26 15:53:36.930130,-10.60838
2021-05-26 15:53:36.945750,-14.16855
2021-05-26 15:53:36.961380,-17.5161
2021-05-26 15:53:36.977010,-20.90674
2021-05-26 15:53:36.992630,-24.68065
2021-05-26 15:53:37.008260,-29.07806
2021-05-26 15:53:37.023880,-34.10532
2021-05-26 15:53:37.039510,-39.39803
2021-05-26 15:53:37.055130,-44.26477
2021-05-26 15:53:37.070760,-47.72568
2021-05-26 15:53:37.086390,-48.8096
2021-05-26 15:53:37.102010,-46.82352
2021-05-26 15:53:37.117640,-41.57177
2021-05-26 15:53:37.133260,-33.53536
2021-05-26 15:53:37.148890,-23.71736
2021-05-26 15:53:37.164510,-13.41212
2021-05-26 15:53:37.180140,-3.817688
2021-05-26 15:53:37.195770,4.265274
2021-05-26 15:53:37.211390,10.55444
2021-05-26 15:53:37.227020,15.15859
2021-05-26 15:53:37.242640,18.38977
2021-05-26 15:53:37.258270,20.54372
2021-05-26 15:53:37.273890,21.76574
2021-05-26 15:53:37.289520,22.16133
2021-05-26 15:53:37.305150,21.87187
2021-05-26 15:53:37.320770,21.19795
2021-05-26 15:53:37.336400,20.53378
2021-05-26 15:53:37.352020,20.30009
2021-05-26 15:53:37.367650,20.73754
2021-05-26 15:53:37.383270,21.78537
2021-05-26 15:53:37.398900,23.15396
2021-05-26 15:53:37.414530,24.42334
2021-05-26 15:53:37.430150,25.26405
2021-05-26 15:53:37.445780,25.52525
2021-05-26 15:53:37.461400,25.18211
2021-05-26 15:53:37.477030,24.2236
2021-05-26 15:53:37.492650,22.53098
2021-05-26 15:53:37.508280,19.87389
2021-05-26 15:53:37.523910,16.03207
2021-05-26 15:53:37.539530,11.0668
2021-05-26 15:53:37.555160,5.359444
2021-05-26 15:53:37.570780,-0.3596344
2021-05-26 15:53:37.586410,-5.267586
2021-05-26 15:53:37.602030,-8.755161
2021-05-26 15:53:37.617660,-10.53304
2021-05-26 15:53:37.633290,-10.7249
2021-05-26 15:53:37.648910,-9.712395
2021-05-26 15:53:37.664540,-8.012444
2021-05-26 15:53:37.680160,-6.029381
2021-05-26 15:53:37.695790,-4.099663
2021-05-26 15:53:37.711410,-2.454773
2021-05-26 15:53:37.727040,-1.279739
2021-05-26 15:53:37.742670,-0.7194862
2021-05-26 15:53:37.758290,-0.799015
2021-05-26 15:53:37.773920,-1.375908
2021-05-26 15:53:37.789540,-2.10487
2021-05-26 15:53:37.805170,-2.507862
2021-05-26 15:53:37.820790,-2.084408
2021-05-26 15:53:37.836420,-0.5284386
2021-05-26 15:53:37.852050,2.162998
2021-05-26 15:53:37.867670,5.705154
2021-05-26 15:53:37.883300,9.552574
2021-05-26 15:53:37.898920,13.16724
2021-05-26 15:53:37.914550,16.16149
2021-05-26 15:53:37.930170,18.39677
2021-05-26 15:53:37.945800,20.02929
2021-05-26 15:53:37.961430,21.36497
2021-05-26 15:53:37.977050,22.71493
2021-05-26 15:53:37.992680,24.265
2021-05-26 15:53:38.008300,25.96908
2021-05-26 15:53:38.023930,27.57734
2021-05-26 15:53:38.039550,28.76176
2021-05-26 15:53:38.055180,29.25971
2021-05-26 15:53:38.070810,29.04279
2021-05-26 15:53:38.086430,28.29606
2021-05-26 15:53:38.102060,27.29883
2021-05-26 15:53:38.117680,26.29642
2021-05-26 15:53:38.133310,25.31498
2021-05-26 15:53:38.148930,24.22033
2021-05-26 15:53:38.164560,22.78017
2021-05-26 15:53:38.180190,20.88038
2021-05-26 15:53:38.195810,18.54551
2021-05-26 15:53:38.211440,15.93708
2021-05-26 15:53:38.227060,13.21916
2021-05-26 15:53:38.242690,10.44178
2021-05-26 15:53:38.258310,7.532837
2021-05-26 15:53:38.273940,4.379957
2021-05-26 15:53:38.289570,0.9414368
2021-05-26 15:53:38.305190,-2.688347
2021-05-26 15:53:38.320820,-6.332983
2021-05-26 15:53:38.336440,-9.834286
2021-05-26 15:53:38.352070,-13.17595
2021-05-26 15:53:38.367690,-16.46045
2021-05-26 15:53:38.383320,-19.93377
2021-05-26 15:53:38.398950,-23.8366
2021-05-26 15:53:38.414570,-28.37929
2021-05-26 15:53:38.430200,-33.59643
2021-05-26 15:53:38.445820,-39.27711
2021-05-26 15:53:38.461450,-44.95898
2021-05-26 15:53:38.477070,-49.93913
2021-05-26 15:53:38.492700,-53.35251
2021-05-26 15:53:38.508330,-54.45405
2021-05-26 15:53:38.523950,-52.80922
2021-05-26 15:53:38.539580,-48.45249
2021-05-26 15:53:38.555200,-41.91872
2021-05-26 15:53:38.570830,-34.02012
2021-05-26 15:53:38.586450,-25.62276
2021-05-26 15:53:38.602080,-17.43397
2021-05-26 15:53:38.617710,-9.848006
2021-05-26 15:53:38.633330,-2.968745
2021-05-26 15:53:38.648960,3.240389
2021-05-26 15:53:38.664580,8.796175
2021-05-26 15:53:38.680210,13.65462
2021-05-26 15:53:38.695830,17.66529
2021-05-26 15:53:38.711460,20.70702
2021-05-26 15:53:38.727090,22.80096
2021-05-26 15:53:38.742710,24.12076
2021-05-26 15:53:38.758340,24.99578
2021-05-26 15:53:38.773960,25.78489
2021-05-26 15:53:38.789590,26.72498
2021-05-26 15:53:38.805210,27.87942
2021-05-26 15:53:38.820840,29.1257
2021-05-26 15:53:38.836470,30.25377
2021-05-26 15:53:38.852090,31.09455
2021-05-26 15:53:38.867720,31.56669
2021-05-26 15:53:38.883340,31.6769
2021-05-26 15:53:38.898970,31.44021
2021-05-26 15:53:38.914590,30.7975
2021-05-26 15:53:38.930220,29.59779
2021-05-26 15:53:38.945850,27.65587
2021-05-26 15:53:38.961470,24.86871
2021-05-26 15:53:38.977100,21.25016
2021-05-26 15:53:38.992720,16.99562
2021-05-26 15:53:39.008350,12.43403
2021-05-26 15:53:39.023970,7.908521
2021-05-26 15:53:39.039600,3.693271
2021-05-26 15:53:39.055230,-0.09236532
2021-05-26 15:53:39.070850,-3.544117
2021-05-26 15:53:39.086480,-6.917712
2021-05-26 15:53:39.102100,-10.56595
2021-05-26 15:53:39.117730,-14.85241
2021-05-26 15:53:39.133350,-20.02554
2021-05-26 15:53:39.148980,-26.03785
2021-05-26 15:53:39.164610,-32.53411
2021-05-26 15:53:39.180230,-38.8097
2021-05-26 15:53:39.195860,-43.94807
2021-05-26 15:53:39.211480,-47.04117
2021-05-26 15:53:39.227110,-47.37283
2021-05-26 15:53:39.242730,-44.69413
2021-05-26 15:53:39.258360,-39.29207
2021-05-26 15:53:39.273990,-31.92071
2021-05-26 15:53:39.289610,-23.61379
2021-05-26 15:53:39.305240,-15.40072
2021-05-26 15:53:39.320860,-8.00631
2021-05-26 15:53:39.336490,-1.779397
2021-05-26 15:53:39.352110,3.28359
2021-05-26 15:53:39.367740,7.384407
2021-05-26 15:53:39.383370,10.69918
2021-05-26 15:53:39.398990,13.30361
2021-05-26 15:53:39.414620,15.18568
2021-05-26 15:53:39.430240,16.36989
2021-05-26 15:53:39.445870,16.9489
2021-05-26 15:53:39.461500,17.19054
2021-05-26 15:53:39.477120,17.45466
2021-05-26 15:53:39.492750,18.05855
2021-05-26 15:53:39.508370,19.18641
2021-05-26 15:53:39.524000,20.8164
2021-05-26 15:53:39.539620,22.6882
2021-05-26 15:53:39.555250,24.43277
2021-05-26 15:53:39.570880,25.66682
2021-05-26 15:53:39.586500,26.1249
2021-05-26 15:53:39.602130,25.75901
2021-05-26 15:53:39.617750,24.7134
2021-05-26 15:53:39.633380,23.17193
2021-05-26 15:53:39.649000,21.27852
2021-05-26 15:53:39.664630,19.05593
2021-05-26 15:53:39.680260,16.4442
2021-05-26 15:53:39.695880,13.36557
2021-05-26 15:53:39.711510,9.861879
2021-05-26 15:53:39.727130,6.066628
2021-05-26 15:53:39.742760,2.209925
2021-05-26 15:53:39.758380,-1.526716
2021-05-26 15:53:39.774010,-5.081726
2021-05-26 15:53:39.789640,-8.47102
2021-05-26 15:53:39.805260,-11.77155
2021-05-26 15:53:39.820890,-15.06851
2021-05-26 15:53:39.836510,-18.44059
2021-05-26 15:53:39.852140,-22.02616
2021-05-26 15:53:39.867760,-25.99074
2021-05-26 15:53:39.883390,-30.49334
2021-05-26 15:53:39.899020,-35.57134
2021-05-26 15:53:39.914640,-40.95756
2021-05-26 15:53:39.930270,-46.01467
2021-05-26 15:53:39.945890,-49.83621
2021-05-26 15:53:39.961520,-51.46576
2021-05-26 15:53:39.977140,-50.218
2021-05-26 15:53:39.992770,-45.922
2021-05-26 15:53:40.008400,-39.02297
2021-05-26 15:53:40.024020,-30.41928
2021-05-26 15:53:40.039650,-21.21151
2021-05-26 15:53:40.055270,-12.40402
2021-05-26 15:53:40.070900,-4.634998
2021-05-26 15:53:40.086520,1.84304
2021-05-26 15:53:40.102150,7.052715
2021-05-26 15:53:40.117780,11.13089
2021-05-26 15:53:40.133400,14.22281
2021-05-26 15:53:40.149030,16.38877
2021-05-26 15:53:40.164650,17.67471
2021-05-26 15:53:40.180280,18.20265
2021-05-26 15:53:40.195900,18.15606
2021-05-26 15:53:40.211530,17.80385
2021-05-26 15:53:40.227160,17.40189
2021-05-26 15:53:40.242780,17.12799
2021-05-26 15:53:40.258410,17.04591
2021-05-26 15:53:40.274030,17.09406
2021-05-26 15:53:40.289660,17.12497
2021-05-26 15:53:40.305280,16.97002
2021-05-26 15:53:40.320910,16.45466
2021-05-26 15:53:40.336540,15.42993
2021-05-26 15:53:40.352160,13.79458
2021-05-26 15:53:40.367790,11.53684
2021-05-26 15:53:40.383410,8.708363
2021-05-26 15:53:40.399040,5.431908
2021-05-26 15:53:40.414660,1.859871
2021-05-26 15:53:40.430290,-1.884254
2021-05-26 15:53:40.445920,-5.725128
2021-05-26 15:53:40.461540,-9.662521
2021-05-26 15:53:40.477170,-13.78228
2021-05-26 15:53:40.492790,-18.20256
2021-05-26 15:53:40.508420,-23.03132
2021-05-26 15:53:40.524040,-28.26561
2021-05-26 15:53:40.539670,-33.67676
2021-05-26 15:53:40.555300,-38.72162
2021-05-26 15:53:40.570920,-42.6246
2021-05-26 15:53:40.586550,-44.4864
2021-05-26 15:53:40.602170,-43.59904
2021-05-26 15:53:40.617800,-39.70262
2021-05-26 15:53:40.633420,-33.07371
2021-05-26 15:53:40.649050,-24.5181
2021-05-26 15:53:40.664680,-15.13123
2021-05-26 15:53:40.680300,-5.973488
2021-05-26 15:53:40.695930,2.169632
2021-05-26 15:53:40.711550,8.901421
2021-05-26 15:53:40.727180,14.16335
2021-05-26 15:53:40.742800,18.10387
2021-05-26 15:53:40.758430,20.92244
2021-05-26 15:53:40.774060,22.7616
2021-05-26 15:53:40.789680,23.70262
2021-05-26 15:53:40.805310,23.85654
2021-05-26 15:53:40.820930,23.40004
2021-05-26 15:53:40.836560,22.63867
2021-05-26 15:53:40.852180,21.87556
2021-05-26 15:53:40.867810,21.39929
2021-05-26 15:53:40.883440,21.33079
2021-05-26 15:53:40.899060,21.61069
2021-05-26 15:53:40.914690,22.02718
2021-05-26 15:53:40.930310,22.30593
2021-05-26 15:53:40.945940,22.17696
2021-05-26 15:53:40.961560,21.44633
2021-05-26 15:53:40.977190,19.98703
2021-05-26 15:53:40.992820,17.73378
2021-05-26 15:53:41.008440,14.72356
2021-05-26 15:53:41.024070,11.05968
2021-05-26 15:53:41.039690,6.932449
2021-05-26 15:53:41.055320,2.593597
2021-05-26 15:53:41.070940,-1.73735
2021-05-26 15:53:41.086570,-5.910324
2021-05-26 15:53:41.102200,-9.928787
2021-05-26 15:53:41.117820,-13.94748
2021-05-26 15:53:41.133450,-18.25029
2021-05-26 15:53:41.149070,-23.12135
2021-05-26 15:53:41.164700,-28.67502
2021-05-26 15:53:41.180320,-34.69472
2021-05-26 15:53:41.195950,-40.52972
2021-05-26 15:53:41.211580,-45.14363
2021-05-26 15:53:41.227200,-47.40323
2021-05-26 15:53:41.242830,-46.39563
2021-05-26 15:53:41.258450,-41.78033
2021-05-26 15:53:41.274080,-33.97563
2021-05-26 15:53:41.289700,-24.03105
2021-05-26 15:53:41.305330,-13.33055
2021-05-26 15:53:41.320960,-3.155075
2021-05-26 15:53:41.336580,5.672638
2021-05-26 15:53:41.352210,12.90048
2021-05-26 15:53:41.367830,18.6964
2021-05-26 15:53:41.383460,23.42334
2021-05-26 15:53:41.399080,27.37875
2021-05-26 15:53:41.414710,30.65663
2021-05-26 15:53:41.430340,33.24855
2021-05-26 15:53:41.445960,35.10121
2021-05-26 15:53:41.461590,36.34242
2021-05-26 15:53:41.477210,37.22867
2021-05-26 15:53:41.492840,38.0786
2021-05-26 15:53:41.508460,39.12146
2021-05-26 15:53:41.524090,40.36856
2021-05-26 15:53:41.539720,41.63539
2021-05-26 15:53:41.555340,42.65526
2021-05-26 15:53:41.570970,43.25143
2021-05-26 15:53:41.586590,43.40091
2021-05-26 15:53:41.602220,43.25555
2021-05-26 15:53:41.633470,42.60054
2021-05-26 15:53:41.649100,41.98015
2021-05-26 15:53:41.664720,40.76823
2021-05-26 15:53:41.680350,38.64296
2021-05-26 15:53:41.695970,35.43526
2021-05-26 15:53:41.711600,31.32359
2021-05-26 15:53:41.727230,26.73615
2021-05-26 15:53:41.742850,22.22197
2021-05-26 15:53:41.758480,18.19272
2021-05-26 15:53:41.774100,14.81264
2021-05-26 15:53:41.789730,11.93994
2021-05-26 15:53:41.805350,9.233597
2021-05-26 15:53:41.820980,6.33374
2021-05-26 15:53:41.836610,2.995438
2021-05-26 15:53:41.852230,-0.8246307
2021-05-26 15:53:41.867860,-5.025787
2021-05-26 15:53:41.883480,-9.402588
2021-05-26 15:53:41.899110,-13.76695
2021-05-26 15:53:41.914730,-18.00851
2021-05-26 15:53:41.930360,-22.09174
2021-05-26 15:53:41.945990,-26.15215
2021-05-26 15:53:41.961610,-30.42615
2021-05-26 15:53:41.977240,-35.25787
2021-05-26 15:53:41.992860,-40.95663
2021-05-26 15:53:42.008490,-47.57655
2021-05-26 15:53:42.024110,-54.73938
2021-05-26 15:53:42.039740,-61.56448
2021-05-26 15:53:42.055370,-66.7907
2021-05-26 15:53:42.070990,-69.09889
2021-05-26 15:53:42.086620,-67.56577
2021-05-26 15:53:42.102240,-61.97302
2021-05-26 15:53:42.117870,-52.94522
2021-05-26 15:53:42.133490,-41.73712
2021-05-26 15:53:42.149120,-29.82639
2021-05-26 15:53:42.164750,-18.47675
2021-05-26 15:53:42.180370,-8.450409
2021-05-26 15:53:42.196000,0.06544495
2021-05-26 15:53:42.211620,7.286774
2021-05-26 15:53:42.227250,13.52362
2021-05-26 15:53:42.242870,19.01765
2021-05-26 15:53:42.258500,23.82469
2021-05-26 15:53:42.274130,27.8812
2021-05-26 15:53:42.289750,31.11952
2021-05-26 15:53:42.305380,33.56433
2021-05-26 15:53:42.321000,35.34013
2021-05-26 15:53:42.336630,36.64664
2021-05-26 15:53:42.352250,37.68518
2021-05-26 15:53:42.367880,38.62007
2021-05-26 15:53:42.383510,39.545
2021-05-26 15:53:42.399130,40.49014
2021-05-26 15:53:42.414760,41.40359
2021-05-26 15:53:42.430380,42.2323
2021-05-26 15:53:42.446010,42.87404
2021-05-26 15:53:42.461630,43.2547
2021-05-26 15:53:42.477260,43.27582
2021-05-26 15:53:42.492890,42.84372
2021-05-26 15:53:42.508510,41.8322
2021-05-26 15:53:42.524140,40.1333
2021-05-26 15:53:42.539760,37.66713
2021-05-26 15:53:42.555390,34.43842
2021-05-26 15:53:42.571010,30.62363
2021-05-26 15:53:42.586640,26.50122
2021-05-26 15:53:42.602270,22.44868
2021-05-26 15:53:42.617890,18.76624
2021-05-26 15:53:42.633520,15.61299
2021-05-26 15:53:42.649140,12.91489
2021-05-26 15:53:42.664770,10.42601
2021-05-26 15:53:42.680390,7.802307
2021-05-26 15:53:42.696020,4.740662
2021-05-26 15:53:42.711650,1.101746
2021-05-26 15:53:42.727270,-3.072113
2021-05-26 15:53:42.742900,-7.556641
2021-05-26 15:53:42.758520,-12.08392
2021-05-26 15:53:42.774150,-16.41609
2021-05-26 15:53:42.789770,-20.44809
2021-05-26 15:53:42.805400,-24.26544
2021-05-26 15:53:42.821030,-28.11469
2021-05-26 15:53:42.836650,-32.28134
2021-05-26 15:53:42.852280,-37.0475
2021-05-26 15:53:42.867900,-42.53447
2021-05-26 15:53:42.883530,-48.61864
2021-05-26 15:53:42.899150,-54.84354
2021-05-26 15:53:42.914780,-60.44281
2021-05-26 15:53:42.930410,-64.43233
2021-05-26 15:53:42.946030,-65.84555
2021-05-26 15:53:42.961660,-63.98071
2021-05-26 15:53:42.977280,-58.66037
2021-05-26 15:53:42.992910,-50.31538
2021-05-26 15:53:43.008530,-39.93082
2021-05-26 15:53:43.024160,-28.76277
2021-05-26 15:53:43.039790,-18.02124
2021-05-26 15:53:43.055410,-8.616516
2021-05-26 15:53:43.071040,-0.9926605
2021-05-26 15:53:43.086660,4.821487
2021-05-26 15:53:43.102290,9.134659
2021-05-26 15:53:43.117910,12.37891
2021-05-26 15:53:43.133540,14.97232
2021-05-26 15:53:43.149170,17.26118
2021-05-26 15:53:43.164790,19.41924
2021-05-26 15:53:43.180420,21.50363
2021-05-26 15:53:43.196040,23.50771
2021-05-26 15:53:43.211670,25.38255
2021-05-26 15:53:43.227290,27.09944
2021-05-26 15:53:43.242920,28.64313
2021-05-26 15:53:43.258550,29.98506
2021-05-26 15:53:43.274170,31.08441
2021-05-26 15:53:43.289800,31.92455
2021-05-26 15:53:43.305420,32.46866
2021-05-26 15:53:43.321050,32.69167
2021-05-26 15:53:43.336670,32.57306
2021-05-26 15:53:43.352300,32.03951
2021-05-26 15:53:43.367930,31.03978
2021-05-26 15:53:43.383550,29.5136
2021-05-26 15:53:43.399180,27.47572
2021-05-26 15:53:43.414800,25.06035
2021-05-26 15:53:43.430430,22.39758
2021-05-26 15:53:43.446050,19.58672
2021-05-26 15:53:43.461680,16.66156
2021-05-26 15:53:43.477310,13.57283
2021-05-26 15:53:43.492930,10.26111
2021-05-26 15:53:43.508560,6.742081
2021-05-26 15:53:43.524180,3.087875
2021-05-26 15:53:43.539810,-0.622406
2021-05-26 15:53:43.555430,-4.292114
2021-05-26 15:53:43.571060,-7.933502
2021-05-26 15:53:43.586690,-11.60771
2021-05-26 15:53:43.602310,-15.3484
2021-05-26 15:53:43.617940,-19.16988
2021-05-26 15:53:43.633560,-23.10802
2021-05-26 15:53:43.649190,-27.2235
2021-05-26 15:53:43.664810,-31.62485
2021-05-26 15:53:43.680440,-36.366
2021-05-26 15:53:43.696070,-41.24046
2021-05-26 15:53:43.711690,-45.66518
2021-05-26 15:53:43.727320,-48.72696
2021-05-26 15:53:43.742940,-49.39781
2021-05-26 15:53:43.758570,-46.97205
2021-05-26 15:53:43.774190,-41.3864
2021-05-26 15:53:43.789820,-33.27289
2021-05-26 15:53:43.805450,-23.78777
2021-05-26 15:53:43.821070,-14.19077
2021-05-26 15:53:43.836700,-5.433701
2021-05-26 15:53:43.852320,2.040207
2021-05-26 15:53:43.867950,8.237106
2021-05-26 15:53:43.883570,13.37761
2021-05-26 15:53:43.899200,17.64005
2021-05-26 15:53:43.914830,21.06737
2021-05-26 15:53:43.930450,23.61166
2021-05-26 15:53:43.961700,26.16078
2021-05-26 15:53:43.977330,26.62402
2021-05-26 15:53:43.992950,26.99394
2021-05-26 15:53:44.008580,27.57961
2021-05-26 15:53:44.024210,28.5162
2021-05-26 15:53:44.039830,29.73936
2021-05-26 15:53:44.055460,31.05893
2021-05-26 15:53:44.071080,32.2619
2021-05-26 15:53:44.086710,33.1216
2021-05-26 15:53:44.102330,33.53157
2021-05-26 15:53:44.117960,33.44954
2021-05-26 15:53:44.133590,32.83968
2021-05-26 15:53:44.149210,31.67899
2021-05-26 15:53:44.164840,29.90733
2021-05-26 15:53:44.180460,27.47445
2021-05-26 15:53:44.196090,24.38359
2021-05-26 15:53:44.211710,20.77808
2021-05-26 15:53:44.227340,16.9219
2021-05-26 15:53:44.242970,13.14465
2021-05-26 15:53:44.258590,9.729485
2021-05-26 15:53:44.274220,6.74942
2021-05-26 15:53:44.289840,4.018227
2021-05-26 15:53:44.305470,1.17765
2021-05-26 15:53:44.321100,-2.138748
2021-05-26 15:53:44.336720,-6.144707
2021-05-26 15:53:44.352350,-10.75032
2021-05-26 15:53:44.367970,-15.61067
2021-05-26 15:53:44.383600,-20.3009
2021-05-26 15:53:44.399220,-24.50819
2021-05-26 15:53:44.414850,-28.18342
2021-05-26 15:53:44.430480,-31.57612
2021-05-26 15:53:44.446100,-35.10844
2021-05-26 15:53:44.461730,-39.19932
2021-05-26 15:53:44.477350,-44.0589
2021-05-26 15:53:44.492980,-49.53678
2021-05-26 15:53:44.508600,-55.05849
2021-05-26 15:53:44.524230,-59.66744
2021-05-26 15:53:44.539860,-62.27637
2021-05-26 15:53:44.555480,-61.946
2021-05-26 15:53:44.571110,-58.1922
2021-05-26 15:53:44.586730,-51.20039
2021-05-26 15:53:44.602360,-41.74181
2021-05-26 15:53:44.617980,-30.98015
2021-05-26 15:53:44.633610,-20.09468
2021-05-26 15:53:44.649240,-9.991188
2021-05-26 15:53:44.664860,-1.14473
2021-05-26 15:53:44.680490,6.347763
2021-05-26 15:53:44.696110,12.59248
2021-05-26 15:53:44.711740,17.66582
2021-05-26 15:53:44.727360,21.59308
2021-05-26 15:53:44.742990,24.37869
2021-05-26 15:53:44.758620,26.13474
2021-05-26 15:53:44.774240,27.15303
2021-05-26 15:53:44.789870,27.84983
2021-05-26 15:53:44.805490,28.64111
2021-05-26 15:53:44.821120,29.79996
2021-05-26 15:53:44.836740,31.37833
2021-05-26 15:53:44.852370,33.16777
2021-05-26 15:53:44.868000,34.88419
2021-05-26 15:53:44.883620,36.27531
2021-05-26 15:53:44.899250,37.20978
2021-05-26 15:53:44.914870,37.68098
2021-05-26 15:53:44.930500,37.76792
2021-05-26 15:53:44.946120,37.50788
2021-05-26 15:53:44.961750,36.89005
2021-05-26 15:53:44.977380,35.86161
2021-05-26 15:53:44.993000,34.35327
2021-05-26 15:53:45.008630,32.31332
2021-05-26 15:53:45.024250,29.76157
2021-05-26 15:53:45.039880,26.7891
2021-05-26 15:53:45.055500,23.55619
2021-05-26 15:53:45.086760,17.20592
2021-05-26 15:53:45.102380,14.42233
2021-05-26 15:53:45.118010,11.9366
2021-05-26 15:53:45.133630,9.569923
2021-05-26 15:53:45.149260,7.059738
2021-05-26 15:53:45.164880,4.106453
2021-05-26 15:53:45.180510,0.5400009
2021-05-26 15:53:45.196140,-3.58783
2021-05-26 15:53:45.211760,-8.025467
2021-05-26 15:53:45.227390,-12.40249
2021-05-26 15:53:45.243010,-16.37489
2021-05-26 15:53:45.258640,-19.79857
2021-05-26 15:53:45.274260,-22.81977
2021-05-26 15:53:45.289890,-25.82113
2021-05-26 15:53:45.305520,-29.28006
2021-05-26 15:53:45.321140,-33.62154
2021-05-26 15:53:45.336770,-39.0046
2021-05-26 15:53:45.352390,-45.27296
2021-05-26 15:53:45.368020,-51.90396
2021-05-26 15:53:45.383640,-58.08781
2021-05-26 15:53:45.399270,-62.80964
2021-05-26 15:53:45.414900,-65.0871
2021-05-26 15:53:45.430520,-64.17332
2021-05-26 15:53:45.446150,-59.73918
2021-05-26 15:53:45.461770,-52.04964
2021-05-26 15:53:45.477400,-41.90695
2021-05-26 15:53:45.493020,-30.49633
2021-05-26 15:53:45.508650,-19.09076
2021-05-26 15:53:45.524280,-8.717117
2021-05-26 15:53:45.539900,0.04885864
2021-05-26 15:53:45.555530,7.076508
2021-05-26 15:53:45.571150,12.57774
2021-05-26 15:53:45.586780,16.9282
2021-05-26 15:53:45.602400,20.41713
2021-05-26 15:53:45.618030,23.24277
2021-05-26 15:53:45.633660,25.53438
2021-05-26 15:53:45.649280,27.39508
2021-05-26 15:53:45.664910,28.98095
2021-05-26 15:53:45.680530,30.45025
2021-05-26 15:53:45.696160,31.88918
2021-05-26 15:53:45.711780,33.26653
2021-05-26 15:53:45.727410,34.44763
2021-05-26 15:53:45.743040,35.28041
2021-05-26 15:53:45.758660,35.69828
2021-05-26 15:53:45.774290,35.79196
2021-05-26 15:53:45.789910,35.73178
2021-05-26 15:53:45.805540,35.67788
2021-05-26 15:53:45.821160,35.64393
2021-05-26 15:53:45.836790,35.4799
2021-05-26 15:53:45.852420,34.90677
2021-05-26 15:53:45.868040,33.63295
2021-05-26 15:53:45.883670,31.47723
2021-05-26 15:53:45.899290,28.42474
2021-05-26 15:53:45.914920,24.69991
2021-05-26 15:53:45.930540,20.65587
2021-05-26 15:53:45.946170,16.72017
2021-05-26 15:53:45.961800,13.21124
2021-05-26 15:53:45.977420,10.24909
2021-05-26 15:53:45.993050,7.703674
2021-05-26 15:53:46.008670,5.261404
2021-05-26 15:53:46.024300,2.57758
2021-05-26 15:53:46.039920,-0.5788305
2021-05-26 15:53:46.055550,-4.220745
2021-05-26 15:53:46.071180,-8.171552
2021-05-26 15:53:46.086800,-12.16119
2021-05-26 15:53:46.102430,-15.98789
2021-05-26 15:53:46.118050,-19.61132
2021-05-26 15:53:46.133680,-23.15487
2021-05-26 15:53:46.149300,-26.85242
2021-05-26 15:53:46.164930,-30.94675
2021-05-26 15:53:46.180560,-35.60189
2021-05-26 15:53:46.196180,-40.79185
2021-05-26 15:53:46.211810,-46.21033
2021-05-26 15:53:46.227430,-51.18883
2021-05-26 15:53:46.243060,-54.74898
2021-05-26 15:53:46.258680,-55.85015
2021-05-26 15:53:46.274310,-53.7237
2021-05-26 15:53:46.289940,-48.22503
2021-05-26 15:53:46.305560,-39.91504
2021-05-26 15:53:46.321190,-29.93695
2021-05-26 15:53:46.336810,-19.59704
2021-05-26 15:53:46.352440,-9.967859
2021-05-26 15:53:46.368060,-1.632704
2021-05-26 15:53:46.383690,5.266211
2021-05-26 15:53:46.399320,10.85843
2021-05-26 15:53:46.414940,15.2963
2021-05-26 15:53:46.430570,18.67771
2021-05-26 15:53:46.446190,21.09222
2021-05-26 15:53:46.461820,22.71321
2021-05-26 15:53:46.477450,23.84259
2021-05-26 15:53:46.493070,24.82634
2021-05-26 15:53:46.508700,25.89843
2021-05-26 15:53:46.524320,27.13517
2021-05-26 15:53:46.539950,28.46981
2021-05-26 15:53:46.555570,29.76313
2021-05-26 15:53:46.571200,30.90889
2021-05-26 15:53:46.586830,31.83703
2021-05-26 15:53:46.602450,32.47372
2021-05-26 15:53:46.618080,32.72575
2021-05-26 15:53:46.633700,32.48175
2021-05-26 15:53:46.649330,31.66815
2021-05-26 15:53:46.664950,30.30128
2021-05-26 15:53:46.680580,28.51921
2021-05-26 15:53:46.696210,26.50523
2021-05-26 15:53:46.711830,24.3746
2021-05-26 15:53:46.727460,22.10617
2021-05-26 15:53:46.743080,19.55655
2021-05-26 15:53:46.758710,16.54182
2021-05-26 15:53:46.774330,12.94291
2021-05-26 15:53:46.789960,8.785782
2021-05-26 15:53:46.805590,4.223274
2021-05-26 15:53:46.821210,-0.4982834
2021-05-26 15:53:46.836840,-5.11396
2021-05-26 15:53:46.852460,-9.46225
2021-05-26 15:53:46.868090,-13.44183
2021-05-26 15:53:46.883710,-17.05782
2021-05-26 15:53:46.899340,-20.38409
2021-05-26 15:53:46.914970,-23.60321
2021-05-26 15:53:46.930590,-26.99519
2021-05-26 15:53:46.946220,-30.90923
2021-05-26 15:53:46.961840,-35.61417
2021-05-26 15:53:46.977470,-41.13999
2021-05-26 15:53:46.993090,-47.10706
2021-05-26 15:53:47.008720,-52.70565
2021-05-26 15:53:47.024350,-56.84434
2021-05-26 15:53:47.039970,-58.43633
2021-05-26 15:53:47.055600,-56.73893
2021-05-26 15:53:47.071220,-51.65649
2021-05-26 15:53:47.086850,-43.73325
2021-05-26 15:53:47.102470,-34.02201
2021-05-26 15:53:47.118100,-23.75294
2021-05-26 15:53:47.133730,-13.97256
2021-05-26 15:53:47.149350,-5.388962
2021-05-26 15:53:47.164980,1.695061
2021-05-26 15:53:47.180600,7.253059
2021-05-26 15:53:47.196230,11.40093
2021-05-26 15:53:47.211850,14.29803
2021-05-26 15:53:47.227480,16.12726
2021-05-26 15:53:47.243110,17.13547
2021-05-26 15:53:47.258730,17.65188
2021-05-26 15:53:47.289980,18.64651
2021-05-26 15:53:47.305610,19.61008
2021-05-26 15:53:47.321230,20.91544
2021-05-26 15:53:47.336860,22.34974
2021-05-26 15:53:47.352490,23.63136
2021-05-26 15:53:47.368110,24.5372
2021-05-26 15:53:47.383740,24.97594
2021-05-26 15:53:47.399360,25.02922
2021-05-26 15:53:47.414990,24.87529
2021-05-26 15:53:47.430610,24.66896
2021-05-26 15:53:47.446240,24.43085
2021-05-26 15:53:47.461870,23.96078
2021-05-26 15:53:47.477490,22.95935
2021-05-26 15:53:47.493120,21.14719
2021-05-26 15:53:47.508740,18.43353
2021-05-26 15:53:47.524370,15.01863
2021-05-26 15:53:47.539990,11.28032
2021-05-26 15:53:47.555620,7.613998
2021-05-26 15:53:47.571250,4.26236
2021-05-26 15:53:47.586870,1.189377
2021-05-26 15:53:47.602500,-1.876053
2021-05-26 15:53:47.618120,-5.227509
2021-05-26 15:53:47.633750,-9.02478
2021-05-26 15:53:47.649370,-13.20026
2021-05-26 15:53:47.665000,-17.48894
2021-05-26 15:53:47.680630,-21.55353
2021-05-26 15:53:47.696250,-25.17615
2021-05-26 15:53:47.711880,-28.36067
2021-05-26 15:53:47.727500,-31.33969
2021-05-26 15:53:47.743130,-34.51469
2021-05-26 15:53:47.758750,-38.29483
2021-05-26 15:53:47.774380,-42.96387
2021-05-26 15:53:47.790010,-48.54376
2021-05-26 15:53:47.805630,-54.709
2021-05-26 15:53:47.821260,-60.7851
2021-05-26 15:53:47.836880,-65.85585
2021-05-26 15:53:47.852510,-68.86423
2021-05-26 15:53:47.868130,-68.8978
2021-05-26 15:53:47.883760,-65.42395
2021-05-26 15:53:47.899390,-58.48242
2021-05-26 15:53:47.915010,-48.75259
2021-05-26 15:53:47.930640,-37.42656
2021-05-26 15:53:47.946260,-25.84877
2021-05-26 15:53:47.961890,-15.205
2021-05-26 15:53:47.977510,-6.241348
2021-05-26 15:53:47.993140,0.883606
2021-05-26 15:53:48.008770,6.392899
2021-05-26 15:53:48.024390,10.70052
2021-05-26 15:53:48.040020,14.19806
2021-05-26 15:53:48.055640,17.09587
2021-05-26 15:53:48.071270,19.49931
2021-05-26 15:53:48.086890,21.49536
2021-05-26 15:53:48.102520,23.1778
2021-05-26 15:53:48.118150,24.72258
2021-05-26 15:53:48.133770,26.26303
2021-05-26 15:53:48.149400,27.8188
2021-05-26 15:53:48.165020,29.32364
2021-05-26 15:53:48.180650,30.64896
2021-05-26 15:53:48.196270,31.69252
2021-05-26 15:53:48.211900,32.45114
2021-05-26 15:53:48.227530,33.00023
2021-05-26 15:53:48.243150,33.42752
2021-05-26 15:53:48.258780,33.74615
2021-05-26 15:53:48.274400,33.81689
2021-05-26 15:53:48.290030,33.35089
2021-05-26 15:53:48.305650,32.06557
2021-05-26 15:53:48.321280,29.83075
2021-05-26 15:53:48.336910,26.76355
2021-05-26 15:53:48.352530,23.19135
2021-05-26 15:53:48.368160,19.57097
2021-05-26 15:53:48.383780,16.23726
2021-05-26 15:53:48.399410,13.34415
2021-05-26 15:53:48.415030,10.77174
2021-05-26 15:53:48.430660,8.256561
2021-05-26 15:53:48.446290,5.508377
2021-05-26 15:53:48.461910,2.35611
2021-05-26 15:53:48.477540,-1.194138
2021-05-26 15:53:48.493160,-5.037018
2021-05-26 15:53:48.508790,-9.035034
2021-05-26 15:53:48.524410,-13.10556
2021-05-26 15:53:48.540040,-17.21597
2021-05-26 15:53:48.555670,-21.4335
2021-05-26 15:53:48.571290,-25.83897
2021-05-26 15:53:48.586920,-30.55563
2021-05-26 15:53:48.602540,-35.69414
2021-05-26 15:53:48.618170,-41.19472
2021-05-26 15:53:48.633790,-46.76576
2021-05-26 15:53:48.649420,-51.80435
2021-05-26 15:53:48.665050,-55.47731
2021-05-26 15:53:48.680670,-56.9102
2021-05-26 15:53:48.696300,-55.50539
2021-05-26 15:53:48.711920,-51.10184
2021-05-26 15:53:48.727550,-44.1156
2021-05-26 15:53:48.743180,-35.38225
2021-05-26 15:53:48.758800,-25.90149
2021-05-26 15:53:48.774430,-16.61816
2021-05-26 15:53:48.790050,-8.219254
2021-05-26 15:53:48.805680,-1.124542
2021-05-26 15:53:48.821300,4.510269
2021-05-26 15:53:48.836930,8.687698
2021-05-26 15:53:48.852560,11.54158
2021-05-26 15:53:48.868180,13.26779
2021-05-26 15:53:48.883810,14.1476
2021-05-26 15:53:48.899430,14.50616
2021-05-26 15:53:48.915060,14.68285
2021-05-26 15:53:48.930680,14.99063
2021-05-26 15:53:48.946310,15.64297
2021-05-26 15:53:48.961940,16.69937
2021-05-26 15:53:48.977560,18.07114
2021-05-26 15:53:48.993190,19.56952
2021-05-26 15:53:49.008810,20.94495
2021-05-26 15:53:49.024440,22.0247
2021-05-26 15:53:49.040060,22.72874
2021-05-26 15:53:49.055690,23.03076
2021-05-26 15:53:49.071320,22.92529
2021-05-26 15:53:49.086940,22.35927
2021-05-26 15:53:49.102570,21.1879
2021-05-26 15:53:49.118190,19.2312
2021-05-26 15:53:49.133820,16.39421
2021-05-26 15:53:49.149440,12.69604
2021-05-26 15:53:49.165070,8.383743
2021-05-26 15:53:49.180700,3.798042
2021-05-26 15:53:49.196320,-0.7135086
2021-05-26 15:53:49.211950,-4.923752
2021-05-26 15:53:49.227570,-8.776176
2021-05-26 15:53:49.243200,-12.40906
2021-05-26 15:53:49.258820,-16.08425
2021-05-26 15:53:49.274450,-20.10408
2021-05-26 15:53:49.290080,-24.69084
2021-05-26 15:53:49.305700,-29.84333
2021-05-26 15:53:49.321330,-35.24348
2021-05-26 15:53:49.336950,-40.21571
2021-05-26 15:53:49.352580,-43.83038
2021-05-26 15:53:49.368200,-45.17213
2021-05-26 15:53:49.383830,-43.58688
2021-05-26 15:53:49.399460,-38.96732
2021-05-26 15:53:49.415080,-31.77718
2021-05-26 15:53:49.430710,-22.94788
2021-05-26 15:53:49.446330,-13.55264
2021-05-26 15:53:49.461960,-4.581421
2021-05-26 15:53:49.477580,3.305412
2021-05-26 15:53:49.493210,9.743065
2021-05-26 15:53:49.508840,14.61557
2021-05-26 15:53:49.524460,17.97339
2021-05-26 15:53:49.540090,19.97305
2021-05-26 15:53:49.555710,20.86529
2021-05-26 15:53:49.571340,20.96899
2021-05-26 15:53:49.586960,20.65877
2021-05-26 15:53:49.602590,20.25633
2021-05-26 15:53:49.618220,19.98602
2021-05-26 15:53:49.633840,19.94096
2021-05-26 15:53:49.665090,20.33719
2021-05-26 15:53:49.680720,20.61706
2021-05-26 15:53:49.696340,20.84747
2021-05-26 15:53:49.711970,20.97258
2021-05-26 15:53:49.727600,20.93694
2021-05-26 15:53:49.743220,20.64946
2021-05-26 15:53:49.758850,19.98431
2021-05-26 15:53:49.774470,18.76192
2021-05-26 15:53:49.790100,16.77276
2021-05-26 15:53:49.805720,13.84007
2021-05-26 15:53:49.821350,9.918663
2021-05-26 15:53:49.836980,5.127968
2021-05-26 15:53:49.852600,-0.2378769
2021-05-26 15:53:49.868230,-5.777138
2021-05-26 15:53:49.883850,-11.11348
2021-05-26 15:53:49.899480,-16.01368
2021-05-26 15:53:49.915100,-20.47702
2021-05-26 15:53:49.930730,-24.73624
2021-05-26 15:53:49.946360,-29.14674
2021-05-26 15:53:49.961980,-34.05098
2021-05-26 15:53:49.977610,-39.55686
2021-05-26 15:53:49.993230,-45.37748
2021-05-26 15:53:50.008860,-50.78186
2021-05-26 15:53:50.024480,-54.70064
2021-05-26 15:53:50.040110,-56.00659
2021-05-26 15:53:50.055740,-53.92201
2021-05-26 15:53:50.071360,-48.34335
2021-05-26 15:53:50.086990,-39.85638
2021-05-26 15:53:50.102610,-29.58667
2021-05-26 15:53:50.118240,-18.84314
2021-05-26 15:53:50.133860,-8.7267
2021-05-26 15:53:50.149490,0.06614304
2021-05-26 15:53:50.165120,7.268749
2021-05-26 15:53:50.180740,12.96455
2021-05-26 15:53:50.196370,17.35435
2021-05-26 15:53:50.211990,20.64153
2021-05-26 15:53:50.227620,23.02119
2021-05-26 15:53:50.243240,24.6313
2021-05-26 15:53:50.258870,25.63226
2021-05-26 15:53:50.274500,26.25804
2021-05-26 15:53:50.290120,26.78938
2021-05-26 15:53:50.305750,27.51854
2021-05-26 15:53:50.321370,28.63623
2021-05-26 15:53:50.337000,30.12383
2021-05-26 15:53:50.352620,31.75161
2021-05-26 15:53:50.368250,33.13339
2021-05-26 15:53:50.383880,33.89186
2021-05-26 15:53:50.399500,33.81789
2021-05-26 15:53:50.415130,32.95286
2021-05-26 15:53:50.430750,31.54934
2021-05-26 15:53:50.446380,29.89175
2021-05-26 15:53:50.462000,28.17422
2021-05-26 15:53:50.477630,26.3765
2021-05-26 15:53:50.493260,24.29039
2021-05-26 15:53:50.508880,21.63427
2021-05-26 15:53:50.524510,18.17462
2021-05-26 15:53:50.540130,13.84343
2021-05-26 15:53:50.555760,8.821142
2021-05-26 15:53:50.571380,3.435027
2021-05-26 15:53:50.587010,-1.92289
2021-05-26 15:53:50.602640,-6.921402
2021-05-26 15:53:50.618260,-11.43306
2021-05-26 15:53:50.633890,-15.55954
2021-05-26 15:53:50.649510,-19.56945
2021-05-26 15:53:50.665140,-23.81552
2021-05-26 15:53:50.696390,-34.16246
2021-05-26 15:53:50.712020,-40.27799
2021-05-26 15:53:50.727640,-46.54611
2021-05-26 15:53:50.743270,-52.17728
2021-05-26 15:53:50.758890,-56.14965
2021-05-26 15:53:50.774520,-57.46222
2021-05-26 15:53:50.790140,-55.3933
2021-05-26 15:53:50.805770,-49.781
2021-05-26 15:53:50.821400,-41.17755
2021-05-26 15:53:50.837020,-30.63656
2021-05-26 15:53:50.852650,-19.4786
2021-05-26 15:53:50.868270,-8.901279
2021-05-26 15:53:50.883900,0.2933769
2021-05-26 15:53:50.899520,7.795578
2021-05-26 15:53:50.915150,13.66934
2021-05-26 15:53:50.930780,18.20391
2021-05-26 15:53:50.946400,21.71418
2021-05-26 15:53:50.962030,24.41972
2021-05-26 15:53:50.977650,26.4967
2021-05-26 15:53:50.993280,28.04982
2021-05-26 15:53:51.008900,29.24733
2021-05-26 15:53:51.024530,30.26516
2021-05-26 15:53:51.040160,31.32202
2021-05-26 15:53:51.055780,32.54913
2021-05-26 15:53:51.071410,33.97242
2021-05-26 15:53:51.087030,35.46462
2021-05-26 15:53:51.102660,36.77114
2021-05-26 15:53:51.118280,37.63527
2021-05-26 15:53:51.133910,37.82456
2021-05-26 15:53:51.149540,37.2713
2021-05-26 15:53:51.165160,36.05225
2021-05-26 15:53:51.180790,34.35513
2021-05-26 15:53:51.196410,32.37522
2021-05-26 15:53:51.212040,30.24757
2021-05-26 15:53:51.227660,27.96046
2021-05-26 15:53:51.243290,25.36203
2021-05-26 15:53:51.258920,22.26558
2021-05-26 15:53:51.274540,18.51501
2021-05-26 15:53:51.290170,14.11848
2021-05-26 15:53:51.305790,9.278091
2021-05-26 15:53:51.321420,4.3097
2021-05-26 15:53:51.337050,-0.4449844
2021-05-26 15:53:51.352670,-4.750175
2021-05-26 15:53:51.368300,-8.52816
2021-05-26 15:53:51.383920,-11.9084
2021-05-26 15:53:51.399550,-15.13889
2021-05-26 15:53:51.415170,-18.57153
2021-05-26 15:53:51.430800,-22.52978
2021-05-26 15:53:51.446430,-27.24258
2021-05-26 15:53:51.462050,-32.75858
2021-05-26 15:53:51.477680,-38.84144
2021-05-26 15:53:51.493300,-44.92466
2021-05-26 15:53:51.508930,-50.14109
2021-05-26 15:53:51.524550,-53.48628
2021-05-26 15:53:51.540180,-54.03835
2021-05-26 15:53:51.555810,-51.25616
2021-05-26 15:53:51.571430,-45.21001
2021-05-26 15:53:51.587060,-36.60739
2021-05-26 15:53:51.602680,-26.56145
2021-05-26 15:53:51.618310,-16.34769
2021-05-26 15:53:51.633930,-6.978371
2021-05-26 15:53:51.649560,0.9327316
2021-05-26 15:53:51.665190,7.174576
2021-05-26 15:53:51.680810,11.86288
2021-05-26 15:53:51.696440,15.20949
2021-05-26 15:53:51.712060,17.41339
2021-05-26 15:53:51.727690,18.6618
2021-05-26 15:53:51.743310,19.15527
2021-05-26 15:53:51.758940,19.15426
2021-05-26 15:53:51.774570,19.00158
2021-05-26 15:53:51.790190,19.02176
2021-05-26 15:53:51.805820,19.4193
2021-05-26 15:53:51.821440,20.24814
2021-05-26 15:53:51.837070,21.3606
2021-05-26 15:53:51.852690,22.48679
2021-05-26 15:53:51.868320,23.34932
2021-05-26 15:53:51.883950,23.77255
2021-05-26 15:53:51.899570,23.74174
2021-05-26 15:53:51.915200,23.36113
2021-05-26 15:53:51.930820,22.75073
2021-05-26 15:53:51.946450,21.92226
2021-05-26 15:53:51.962070,20.73985
2021-05-26 15:53:51.977700,18.9612
2021-05-26 15:53:51.993330,16.35809
2021-05-26 15:53:52.008950,12.91313
2021-05-26 15:53:52.024580,8.812958
2021-05-26 15:53:52.040200,4.453293
2021-05-26 15:53:52.055830,0.2252655
2021-05-26 15:53:52.071450,-3.628227
2021-05-26 15:53:52.087080,-7.13649
2021-05-26 15:53:52.102710,-10.53825
2021-05-26 15:53:52.118330,-14.17181
2021-05-26 15:53:52.133960,-18.3053
2021-05-26 15:53:52.149580,-23.02338
2021-05-26 15:53:52.165210,-28.19543
2021-05-26 15:53:52.180830,-33.45479
2021-05-26 15:53:52.196460,-38.22404
2021-05-26 15:53:52.212090,-41.74512
2021-05-26 15:53:52.227710,-43.21129
2021-05-26 15:53:52.243340,-41.9451
2021-05-26 15:53:52.258960,-37.64804
2021-05-26 15:53:52.274590,-30.52502
2021-05-26 15:53:52.290210,-21.32684
2021-05-26 15:53:52.305840,-11.18549
2021-05-26 15:53:52.321470,-1.264862
2021-05-26 15:53:52.337090,7.479843
2021-05-26 15:53:52.352720,14.54631
2021-05-26 15:53:52.368340,19.8317
2021-05-26 15:53:52.383970,23.52475
2021-05-26 15:53:52.399590,25.8759
2021-05-26 15:53:52.415220,27.13852
2021-05-26 15:53:52.430850,27.51262
2021-05-26 15:53:52.446470,27.22127
2021-05-26 15:53:52.462100,26.52902
2021-05-26 15:53:52.477720,25.73531
2021-05-26 15:53:52.493350,25.12332
2021-05-26 15:53:52.508970,24.84877
2021-05-26 15:53:52.524600,24.91518
2021-05-26 15:53:52.540230,25.15826
2021-05-26 15:53:52.555850,25.36777
2021-05-26 15:53:52.571480,25.36882
2021-05-26 15:53:52.587100,25.07837
2021-05-26 15:53:52.602730,24.5025
2021-05-26 15:53:52.618350,23.65889
2021-05-26 15:53:52.633980,22.53009
2021-05-26 15:53:52.649610,21.00111
2021-05-26 15:53:52.665230,18.89096
2021-05-26 15:53:52.680860,16.03578
2021-05-26 15:53:52.696480,12.35683
2021-05-26 15:53:52.712110,7.952728
2021-05-26 15:53:52.727730,3.075333
2021-05-26 15:53:52.743360,-1.903381
2021-05-26 15:53:52.758990,-6.654022
2021-05-26 15:53:52.774610,-10.98833
2021-05-26 15:53:52.790240,-14.98163
2021-05-26 15:53:52.805860,-18.93324
2021-05-26 15:53:52.821490,-23.2699
2021-05-26 15:53:52.837110,-28.38394
2021-05-26 15:53:52.852740,-34.42401
2021-05-26 15:53:52.868370,-41.17818
2021-05-26 15:53:52.883990,-47.99022
2021-05-26 15:53:52.899620,-53.85834
2021-05-26 15:53:52.915240,-57.63591
2021-05-26 15:53:52.930870,-58.38109
2021-05-26 15:53:52.946490,-55.59494
2021-05-26 15:53:52.962120,-49.44402
2021-05-26 15:53:52.977750,-40.74922
2021-05-26 15:53:52.993370,-30.70503
2021-05-26 15:53:53.009000,-20.55005
2021-05-26 15:53:53.024620,-11.20862
2021-05-26 15:53:53.040250,-3.158936
2021-05-26 15:53:53.055870,3.553696
2021-05-26 15:53:53.071500,9.057693
2021-05-26 15:53:53.087130,13.47514
2021-05-26 15:53:53.102750,16.82352
2021-05-26 15:53:53.118380,19.05315
2021-05-26 15:53:53.134000,20.21236
2021-05-26 15:53:53.149630,20.53439
2021-05-26 15:53:53.165250,20.39488
2021-05-26 15:53:53.180880,20.19353
2021-05-26 15:53:53.196510,20.25102
2021-05-26 15:53:53.212130,20.66725
2021-05-26 15:53:53.227760,21.35576
2021-05-26 15:53:53.243380,22.16196
2021-05-26 15:53:53.259010,22.89638
2021-05-26 15:53:53.274630,23.45024
2021-05-26 15:53:53.290260,23.74402
2021-05-26 15:53:53.305890,23.77379
2021-05-26 15:53:53.321510,23.54137
2021-05-26 15:53:53.337140,23.06334
2021-05-26 15:53:53.352760,22.34512
2021-05-26 15:53:53.368390,21.28735
2021-05-26 15:53:53.384010,19.73546
2021-05-26 15:53:53.399640,17.50099
2021-05-26 15:53:53.415270,14.52068
2021-05-26 15:53:53.430890,10.92282
2021-05-26 15:53:53.446520,7.063278
2021-05-26 15:53:53.462140,3.417725
2021-05-26 15:53:53.477770,0.3238831
2021-05-26 15:53:53.493390,-2.154434
2021-05-26 15:53:53.509020,-4.283096
2021-05-26 15:53:53.524650,-6.524323
2021-05-26 15:53:53.540270,-9.329361
2021-05-26 15:53:53.555900,-12.92873
2021-05-26 15:53:53.571520,-17.21988
2021-05-26 15:53:53.587150,-21.81094
2021-05-26 15:53:53.602780,-26.09698
2021-05-26 15:53:53.618400,-29.4427
2021-05-26 15:53:53.634030,-31.29675
2021-05-26 15:53:53.649650,-31.33928
2021-05-26 15:53:53.665280,-29.5656
2021-05-26 15:53:53.680900,-26.27182
2021-05-26 15:53:53.696530,-21.96928
2021-05-26 15:53:53.712160,-17.16138
2021-05-26 15:53:53.727780,-12.23981
2021-05-26 15:53:53.743410,-7.360794
2021-05-26 15:53:53.759030,-2.550171
2021-05-26 15:53:53.774660,2.184464
2021-05-26 15:53:53.790280,6.678299
2021-05-26 15:53:53.805910,10.66457
2021-05-26 15:53:53.821540,13.90755
2021-05-26 15:53:53.837160,16.28905
2021-05-26 15:53:53.852790,17.97586
2021-05-26 15:53:53.868410,19.29575
2021-05-26 15:53:53.884040,20.62065
2021-05-26 15:53:53.899660,22.20161
2021-05-26 15:53:53.915290,24.15056
2021-05-26 15:53:53.930920,26.4352
2021-05-26 15:53:53.946540,28.99876
2021-05-26 15:53:53.977790,34.74973
2021-05-26 15:53:53.993420,37.80266
2021-05-26 15:53:54.009040,40.82733
2021-05-26 15:53:54.024670,43.63835
2021-05-26 15:53:54.040300,46.06516
2021-05-26 15:53:54.055920,48.00305
2021-05-26 15:53:54.071550,49.41518
2021-05-26 15:53:54.087170,50.37619
2021-05-26 15:53:54.102800,51.00565
2021-05-26 15:53:54.118420,51.41142
2021-05-26 15:53:54.134050,51.63776
2021-05-26 15:53:54.149680,51.6512
2021-05-26 15:53:54.165300,51.28365
2021-05-26 15:53:54.180930,50.32014
2021-05-26 15:53:54.196550,48.59076
2021-05-26 15:53:54.212180,46.00246
2021-05-26 15:53:54.227800,42.68571
2021-05-26 15:53:54.243430,38.90944
2021-05-26 15:53:54.259060,35.03085
2021-05-26 15:53:54.274680,31.35437
2021-05-26 15:53:54.290310,28.099
2021-05-26 15:53:54.305930,25.35077
2021-05-26 15:53:54.321560,23.15025
2021-05-26 15:53:54.337180,21.49408
2021-05-26 15:53:54.352810,20.3387
2021-05-26 15:53:54.368440,19.62207
2021-05-26 15:53:54.384060,19.21899
2021-05-26 15:53:54.399690,18.95616
2021-05-26 15:53:54.415310,18.67328
2021-05-26 15:53:54.430940,18.27979
2021-05-26 15:53:54.446560,17.76727
2021-05-26 15:53:54.462190,17.24199
2021-05-26 15:53:54.477820,16.84976
2021-05-26 15:53:54.493440,16.65331
2021-05-26 15:53:54.509070,16.67075
2021-05-26 15:53:54.524690,16.81601
2021-05-26 15:53:54.540320,16.94295
2021-05-26 15:53:54.555940,16.93066
2021-05-26 15:53:54.571570,16.71625
2021-05-26 15:53:54.587200,16.26379
2021-05-26 15:53:54.602820,15.58538
2021-05-26 15:53:54.618450,14.67849
2021-05-26 15:53:54.634070,13.52143
2021-05-26 15:53:54.649700,12.08318
2021-05-26 15:53:54.665320,10.31779
2021-05-26 15:53:54.680950,8.23793
2021-05-26 15:53:54.696580,5.9403
2021-05-26 15:53:54.712200,3.547058
2021-05-26 15:53:54.727830,1.162704
2021-05-26 15:53:54.743450,-1.170776
2021-05-26 15:53:54.759080,-3.457687
2021-05-26 15:53:54.774700,-5.751629
2021-05-26 15:53:54.790330,-8.097225
2021-05-26 15:53:54.805960,-10.50718
2021-05-26 15:53:54.821580,-12.9575
2021-05-26 15:53:54.837210,-15.42326
2021-05-26 15:53:54.852830,-17.88781
2021-05-26 15:53:54.868460,-20.38951
2021-05-26 15:53:54.884080,-22.91152
2021-05-26 15:53:54.899710,-25.36559
2021-05-26 15:53:54.915340,-27.53073
2021-05-26 15:53:54.930960,-29.09747
2021-05-26 15:53:54.946590,-29.75883
2021-05-26 15:53:54.962210,-29.33047
2021-05-26 15:53:54.977840,-27.82419
2021-05-26 15:53:54.993460,-25.48236
2021-05-26 15:53:55.009090,-22.67001
2021-05-26 15:53:55.024720,-19.71291
2021-05-26 15:53:55.040340,-16.79684
2021-05-26 15:53:55.055970,-13.94872
2021-05-26 15:53:55.071590,-11.09053
2021-05-26 15:53:55.087220,-8.182678
2021-05-26 15:53:55.102840,-5.232273
2021-05-26 15:53:55.118470,-2.292309
2021-05-26 15:53:55.134100,0.615097
2021-05-26 15:53:55.149720,3.516983
2021-05-26 15:53:55.165350,6.476059
2021-05-26 15:53:55.180970,9.482498
2021-05-26 15:53:55.196600,12.38734
2021-05-26 15:53:55.212220,14.96072
2021-05-26 15:53:55.227850,16.95701
2021-05-26 15:53:55.243480,18.26682
2021-05-26 15:53:55.259100,19.00892
2021-05-26 15:53:55.274730,19.47122
2021-05-26 15:53:55.290350,19.95424
2021-05-26 15:53:55.305980,20.63278
2021-05-26 15:53:55.321600,21.46529
2021-05-26 15:53:55.337230,22.23607
2021-05-26 15:53:55.352860,22.69545
2021-05-26 15:53:55.368480,22.61629
2021-05-26 15:53:55.384110,21.91736
2021-05-26 15:53:55.399730,20.57393
2021-05-26 15:53:55.415360,18.65758
2021-05-26 15:53:55.430980,16.26335
2021-05-26 15:53:55.446610,13.50923
2021-05-26 15:53:55.462240,10.56911
2021-05-26 15:53:55.477860,7.617294
2021-05-26 15:53:55.493490,4.804337
2021-05-26 15:53:55.509110,2.206482
2021-05-26 15:53:55.524740,-0.2155304
2021-05-26 15:53:55.540360,-2.625763
2021-05-26 15:53:55.555990,-5.243698
2021-05-26 15:53:55.571620,-8.243073
2021-05-26 15:53:55.587240,-11.71716
2021-05-26 15:53:55.602870,-15.59286
2021-05-26 15:53:55.618490,-19.70471
2021-05-26 15:53:55.634120,-23.81671
2021-05-26 15:53:55.649740,-27.78613
2021-05-26 15:53:55.665370,-31.53758
2021-05-26 15:53:55.681000,-35.10431
2021-05-26 15:53:55.696620,-38.51566
2021-05-26 15:53:55.712250,-41.76303
2021-05-26 15:53:55.727870,-44.81534
2021-05-26 15:53:55.743500,-47.64771
2021-05-26 15:53:55.759120,-50.35483
2021-05-26 15:53:55.774750,-53.08914
2021-05-26 15:53:55.790380,-56.08038
2021-05-26 15:53:55.806000,-59.43039
2021-05-26 15:53:55.821630,-63.06186
2021-05-26 15:53:55.837250,-66.62686
2021-05-26 15:53:55.852880,-69.59915
2021-05-26 15:53:55.868510,-71.4458
2021-05-26 15:53:55.884130,-71.75519
2021-05-26 15:53:55.899760,-70.39194
2021-05-26 15:53:55.915380,-67.46869
2021-05-26 15:53:55.931010,-63.28662
2021-05-26 15:53:55.946630,-58.22366
2021-05-26 15:53:55.962260,-52.70007
2021-05-26 15:53:55.977890,-47.02347
2021-05-26 15:53:55.993510,-41.41788
2021-05-26 15:53:56.009140,-35.99313
2021-05-26 15:53:56.024760,-30.75037
2021-05-26 15:53:56.040390,-25.68378
2021-05-26 15:53:56.056010,-20.7981
2021-05-26 15:53:56.071640,-16.12991
2021-05-26 15:53:56.087270,-11.74673
2021-05-26 15:53:56.102890,-7.728912
2021-05-26 15:53:56.118520,-4.105927
2021-05-26 15:53:56.134140,-0.8473206
2021-05-26 15:53:56.149770,2.121094
2021-05-26 15:53:56.165390,4.874786
2021-05-26 15:53:56.181020,7.390503
2021-05-26 15:53:56.212270,11.47144
2021-05-26 15:53:56.227900,12.94464
2021-05-26 15:53:56.243520,14.10257
2021-05-26 15:53:56.259150,15.09689
2021-05-26 15:53:56.274770,16.06052
2021-05-26 15:53:56.290400,17.03827
2021-05-26 15:53:56.306030,17.95651
2021-05-26 15:53:56.321650,18.61942
2021-05-26 15:53:56.337280,18.85953
2021-05-26 15:53:56.352900,18.57819
2021-05-26 15:53:56.368530,17.82184
2021-05-26 15:53:56.384150,16.69876
2021-05-26 15:53:56.399780,15.35638
2021-05-26 15:53:56.415410,13.85767
2021-05-26 15:53:56.431030,12.19098
2021-05-26 15:53:56.446660,10.31113
2021-05-26 15:53:56.462280,8.12619
2021-05-26 15:53:56.477910,5.63208
2021-05-26 15:53:56.493530,2.847046
2021-05-26 15:53:56.509160,-0.1541748
2021-05-26 15:53:56.524790,-3.288361
2021-05-26 15:53:56.540410,-6.475464
2021-05-26 15:53:56.556040,-9.720886
2021-05-26 15:53:56.571660,-13.12692
2021-05-26 15:53:56.587290,-16.84354
2021-05-26 15:53:56.602910,-20.99701
2021-05-26 15:53:56.618540,-25.53723
2021-05-26 15:53:56.634170,-30.20306
2021-05-26 15:53:56.649790,-34.49072
2021-05-26 15:53:56.665420,-37.82443
2021-05-26 15:53:56.681040,-39.67734
2021-05-26 15:53:56.696670,-39.73041
2021-05-26 15:53:56.712290,-37.96451
2021-05-26 15:53:56.727920,-34.61359
2021-05-26 15:53:56.743550,-30.10175
2021-05-26 15:53:56.759170,-24.88687
2021-05-26 15:53:56.774800,-19.41544
2021-05-26 15:53:56.790420,-13.99683
2021-05-26 15:53:56.806050,-8.83316
2021-05-26 15:53:56.821670,-4.05835
2021-05-26 15:53:56.837300,0.2579041
2021-05-26 15:53:56.852930,4.018127
2021-05-26 15:53:56.868550,7.134644
2021-05-26 15:53:56.884180,9.522949
2021-05-26 15:53:56.899800,11.19559
2021-05-26 15:53:56.915430,12.24368
2021-05-26 15:53:56.931050,12.90225
2021-05-26 15:53:56.946680,13.42917
2021-05-26 15:53:56.962310,14.01358
2021-05-26 15:53:56.977930,14.73981
2021-05-26 15:53:56.993560,15.56085
2021-05-26 15:53:57.009180,16.32394
2021-05-26 15:53:57.024810,16.86066
2021-05-26 15:53:57.040430,17.05795
2021-05-26 15:53:57.056060,16.92056
2021-05-26 15:53:57.071690,16.54132
2021-05-26 15:53:57.087310,16.05685
2021-05-26 15:53:57.102940,15.55994
2021-05-26 15:53:57.118560,15.05362
2021-05-26 15:53:57.134190,14.42279
2021-05-26 15:53:57.149810,13.52469
2021-05-26 15:53:57.165440,12.22263
2021-05-26 15:53:57.181070,10.44229
2021-05-26 15:53:57.196690,8.203827
2021-05-26 15:53:57.212320,5.607849
2021-05-26 15:53:57.227940,2.781769
2021-05-26 15:53:57.243570,-0.1672058
2021-05-26 15:53:57.259190,-3.181091
2021-05-26 15:53:57.274820,-6.263153
2021-05-26 15:53:57.290450,-9.401764
2021-05-26 15:53:57.306070,-12.6044
2021-05-26 15:53:57.321700,-15.86636
2021-05-26 15:53:57.337320,-19.20544
2021-05-26 15:53:57.352950,-22.61041
2021-05-26 15:53:57.368570,-26.00845
2021-05-26 15:53:57.384200,-29.19482
2021-05-26 15:53:57.415450,-33.34085
2021-05-26 15:53:57.431080,-33.42294
2021-05-26 15:53:57.446700,-31.83817
2021-05-26 15:53:57.462330,-28.68436
2021-05-26 15:53:57.477950,-24.38873
2021-05-26 15:53:57.493580,-19.49179
2021-05-26 15:53:57.509210,-14.49072
2021-05-26 15:53:57.524830,-9.725708
2021-05-26 15:53:57.540460,-5.363159
2021-05-26 15:53:57.556080,-1.448029
2021-05-26 15:53:57.571710,2.040741
2021-05-26 15:53:57.587330,5.126801
2021-05-26 15:53:57.602960,7.846558
2021-05-26 15:53:57.618590,10.23367
2021-05-26 15:53:57.634210,12.35214
2021-05-26 15:53:57.649840,14.27695
2021-05-26 15:53:57.665460,16.07117
2021-05-26 15:53:57.681090,17.78772
2021-05-26 15:53:57.696710,19.43451
2021-05-26 15:53:57.712340,21.02118
2021-05-26 15:53:57.727970,22.51761
2021-05-26 15:53:57.743590,23.858
2021-05-26 15:53:57.759220,24.92416
2021-05-26 15:53:57.774840,25.61813
2021-05-26 15:53:57.790470,25.86108
2021-05-26 15:53:57.806090,25.64688
2021-05-26 15:53:57.821720,25.04181
2021-05-26 15:53:57.837350,24.10773
2021-05-26 15:53:57.852970,22.89874
2021-05-26 15:53:57.868600,21.35828
2021-05-26 15:53:57.884220,19.44586
2021-05-26 15:53:57.899850,17.11145
2021-05-26 15:53:57.915470,14.39771
2021-05-26 15:53:57.931100,11.42148
2021-05-26 15:53:57.946730,8.354858
2021-05-26 15:53:57.962350,5.387085
2021-05-26 15:53:57.977980,2.612244
2021-05-26 15:53:57.993600,0.02059937
2021-05-26 15:53:58.009230,-2.538727
2021-05-26 15:53:58.024850,-5.221008
2021-05-26 15:53:58.040480,-8.250732
2021-05-26 15:53:58.056110,-11.74149
2021-05-26 15:53:58.071730,-15.68631
2021-05-26 15:53:58.087360,-19.85806
2021-05-26 15:53:58.102980,-23.81873
2021-05-26 15:53:58.118610,-26.99426
2021-05-26 15:53:58.134230,-28.81537
2021-05-26 15:53:58.149860,-28.88028
2021-05-26 15:53:58.165490,-27.09491
2021-05-26 15:53:58.181110,-23.74359
2021-05-26 15:53:58.196740,-19.34232
2021-05-26 15:53:58.212360,-14.48984
2021-05-26 15:53:58.227990,-9.670532
2021-05-26 15:53:58.243610,-5.138397
2021-05-26 15:53:58.259240,-1.013031
2021-05-26 15:53:58.274870,2.699371
2021-05-26 15:53:58.290490,5.934265
2021-05-26 15:53:58.306120,8.588806
2021-05-26 15:53:58.321740,10.52975
2021-05-26 15:53:58.337370,11.75528
2021-05-26 15:53:58.352990,12.39423
2021-05-26 15:53:58.368620,12.68698
2021-05-26 15:53:58.384250,12.92056
2021-05-26 15:53:58.399870,13.26807
2021-05-26 15:53:58.415500,13.77966
2021-05-26 15:53:58.431120,14.31265
2021-05-26 15:53:58.446750,14.67581
2021-05-26 15:53:58.462380,14.67349
2021-05-26 15:53:58.478000,14.24615
2021-05-26 15:53:58.493630,13.46359
2021-05-26 15:53:58.509250,12.47153
2021-05-26 15:53:58.524880,11.4567
2021-05-26 15:53:58.540500,10.50452
2021-05-26 15:53:58.571760,8.639038
2021-05-26 15:53:58.587380,7.432129
2021-05-26 15:53:58.603010,5.824799
2021-05-26 15:53:58.618630,3.798279
2021-05-26 15:53:58.634260,1.444366
2021-05-26 15:53:58.649880,-1.062439
2021-05-26 15:53:58.665510,-3.532104
2021-05-26 15:53:58.681140,-5.878998
2021-05-26 15:53:58.696760,-8.108368
2021-05-26 15:53:58.712390,-10.29434
2021-05-26 15:53:58.728010,-12.5321
2021-05-26 15:53:58.743640,-14.9079
2021-05-26 15:53:58.759260,-17.49341
2021-05-26 15:53:58.774890,-20.35318
2021-05-26 15:53:58.790520,-23.52792
2021-05-26 15:53:58.806140,-26.9126
2021-05-26 15:53:58.821770,-30.20474
2021-05-26 15:53:58.837390,-32.89066
