Datetime,value
BVP
2021-05-25 11:41:19.816390,9.070244
2021-05-25 11:41:19.832020,14.13956
2021-05-25 11:41:19.847640,17.85403
2021-05-25 11:41:19.863270,19.50319
2021-05-25 11:41:19.878890,19.04477
2021-05-25 11:41:19.894520,16.9413
2021-05-25 11:41:19.910140,13.72403
2021-05-25 11:41:19.925770,9.642654
2021-05-25 11:41:19.941400,4.611046
2021-05-25 11:41:19.957020,-1.477592
2021-05-25 11:41:19.972650,-8.342712
2021-05-25 11:41:19.988270,-15.03065
2021-05-25 11:41:20.003900,-20.10973
2021-05-25 11:41:20.019520,-22.21255
2021-05-25 11:41:20.035150,-20.71924
2021-05-25 11:41:20.050780,-16.10013
2021-05-25 11:41:20.066400,-9.822495
2021-05-25 11:41:20.082030,-3.762199
2021-05-25 11:41:20.097650,0.5532303
2021-05-25 11:41:20.113280,2.497391
2021-05-25 11:41:20.128900,2.480507
2021-05-25 11:41:20.144530,1.59623
2021-05-25 11:41:20.160160,1.048973
2021-05-25 11:41:20.175780,1.60363
2021-05-25 11:41:20.191410,3.327858
2021-05-25 11:41:20.207030,5.628616
2021-05-25 11:41:20.222660,7.638954
2021-05-25 11:41:20.238280,8.57589
2021-05-25 11:41:20.253910,8.088463
2021-05-25 11:41:20.269540,6.257111
2021-05-25 11:41:20.285160,3.53685
2021-05-25 11:41:20.300790,0.5465164
2021-05-25 11:41:20.316410,-2.174492
2021-05-25 11:41:20.332040,-4.279236
2021-05-25 11:41:20.347660,-5.623451
2021-05-25 11:41:20.363290,-6.252251
2021-05-25 11:41:20.378920,-6.532997
2021-05-25 11:41:20.394540,-7.215477
2021-05-25 11:41:20.410170,-9.329651
2021-05-25 11:41:20.425790,-13.75162
2021-05-25 11:41:20.441420,-20.58118
2021-05-25 11:41:20.457040,-28.75724
2021-05-25 11:41:20.472670,-36.20634
2021-05-25 11:41:20.488300,-40.54168
2021-05-25 11:41:20.503920,-40.0531
2021-05-25 11:41:20.519550,-34.40385
2021-05-25 11:41:20.535170,-24.64911
2021-05-25 11:41:20.550800,-12.57391
2021-05-25 11:41:20.566420,0.1391296
2021-05-25 11:41:20.582050,12.44196
2021-05-25 11:41:20.597680,23.86806
2021-05-25 11:41:20.613300,34.12154
2021-05-25 11:41:20.628930,42.64655
2021-05-25 11:41:20.644550,48.65738
2021-05-25 11:41:20.660180,51.48438
2021-05-25 11:41:20.675800,50.99105
2021-05-25 11:41:20.691430,47.82628
2021-05-25 11:41:20.707060,43.27345
2021-05-25 11:41:20.722680,39.00764
2021-05-25 11:41:20.738310,36.82117
2021-05-25 11:41:20.753930,38.28521
2021-05-25 11:41:20.769560,44.11084
2021-05-25 11:41:20.785180,53.48978
2021-05-25 11:41:20.800810,63.76054
2021-05-25 11:41:20.816440,70.81252
2021-05-25 11:41:20.832060,70.44295
2021-05-25 11:41:20.847690,60.13447
2021-05-25 11:41:20.863310,40.40453
2021-05-25 11:41:20.878940,14.92551
2021-05-25 11:41:20.894560,-10.87292
2021-05-25 11:41:20.910190,-31.95759
2021-05-25 11:41:20.925820,-45.50795
2021-05-25 11:41:20.941440,-51.48469
2021-05-25 11:41:20.957070,-51.78219
2021-05-25 11:41:20.972690,-48.75708
2021-05-25 11:41:20.988320,-43.98417
2021-05-25 11:41:21.003940,-37.97102
2021-05-25 11:41:21.019570,-30.74016
2021-05-25 11:41:21.035200,-22.67071
2021-05-25 11:41:21.050820,-14.87067
2021-05-25 11:41:21.066450,-8.853409
2021-05-25 11:41:21.082070,-5.780174
2021-05-25 11:41:21.097700,-5.792259
2021-05-25 11:41:21.113320,-7.905136
2021-05-25 11:41:21.128950,-10.52456
2021-05-25 11:41:21.144580,-12.14383
2021-05-25 11:41:21.160200,-11.97902
2021-05-25 11:41:21.175830,-10.17285
2021-05-25 11:41:21.191450,-7.537384
2021-05-25 11:41:21.207080,-5.070015
2021-05-25 11:41:21.222700,-3.495224
2021-05-25 11:41:21.238330,-2.964111
2021-05-25 11:41:21.253960,-3.121155
2021-05-25 11:41:21.269580,-3.319901
2021-05-25 11:41:21.285210,-2.965332
2021-05-25 11:41:21.300830,-1.797462
2021-05-25 11:41:21.316460,0.04291534
2021-05-25 11:41:21.332090,2.094353
2021-05-25 11:41:21.347710,3.826653
2021-05-25 11:41:21.363340,4.865074
2021-05-25 11:41:21.378960,5.163376
2021-05-25 11:41:21.394590,4.949211
2021-05-25 11:41:21.410210,4.593506
2021-05-25 11:41:21.425840,4.393761
2021-05-25 11:41:21.441470,4.43145
2021-05-25 11:41:21.457090,4.583618
2021-05-25 11:41:21.472720,4.609894
2021-05-25 11:41:21.488340,4.319115
2021-05-25 11:41:21.503970,3.638329
2021-05-25 11:41:21.519590,2.664986
2021-05-25 11:41:21.535220,1.566284
2021-05-25 11:41:21.550850,0.5157013
2021-05-25 11:41:21.566470,-0.425972
2021-05-25 11:41:21.582100,-1.326546
2021-05-25 11:41:21.597720,-2.296539
2021-05-25 11:41:21.613350,-3.415657
2021-05-25 11:41:21.628970,-4.680527
2021-05-25 11:41:21.644600,-5.971748
2021-05-25 11:41:21.660230,-7.141106
2021-05-25 11:41:21.675850,-8.112373
2021-05-25 11:41:21.691480,-8.895538
2021-05-25 11:41:21.707100,-9.632591
2021-05-25 11:41:21.722730,-10.49789
2021-05-25 11:41:21.738350,-11.62805
2021-05-25 11:41:21.753980,-13.07046
2021-05-25 11:41:21.769610,-14.76357
2021-05-25 11:41:21.785230,-16.49994
2021-05-25 11:41:21.800860,-17.98684
2021-05-25 11:41:21.816480,-18.85144
2021-05-25 11:41:21.832110,-18.74121
2021-05-25 11:41:21.847730,-17.47134
2021-05-25 11:41:21.863360,-15.11155
2021-05-25 11:41:21.878990,-12.0264
2021-05-25 11:41:21.894610,-8.768661
2021-05-25 11:41:21.910240,-5.870155
2021-05-25 11:41:21.925860,-3.673058
2021-05-25 11:41:21.941490,-2.252396
2021-05-25 11:41:21.957110,-1.481232
2021-05-25 11:41:21.972740,-1.146309
2021-05-25 11:41:21.988370,-1.048355
2021-05-25 11:41:22.003990,-0.9883194
2021-05-25 11:41:22.019620,-0.7118835
2021-05-25 11:41:22.035240,0.09418488
2021-05-25 11:41:22.066490,4.347443
2021-05-25 11:41:22.082120,7.738747
2021-05-25 11:41:22.097750,11.43236
2021-05-25 11:41:22.113370,14.80187
2021-05-25 11:41:22.129000,17.31332
2021-05-25 11:41:22.144620,18.72601
2021-05-25 11:41:22.160250,19.14027
2021-05-25 11:41:22.175870,18.88605
2021-05-25 11:41:22.191500,18.34286
2021-05-25 11:41:22.207130,17.76925
2021-05-25 11:41:22.222750,17.20428
2021-05-25 11:41:22.238380,16.52552
2021-05-25 11:41:22.254000,15.55576
2021-05-25 11:41:22.269630,14.15468
2021-05-25 11:41:22.285250,12.33779
2021-05-25 11:41:22.300880,10.24009
2021-05-25 11:41:22.316510,8.067093
2021-05-25 11:41:22.332130,6.002846
2021-05-25 11:41:22.347760,4.139038
2021-05-25 11:41:22.363380,2.465988
2021-05-25 11:41:22.379010,0.9054947
2021-05-25 11:41:22.394630,-0.5979385
2021-05-25 11:41:22.410260,-2.058258
2021-05-25 11:41:22.425890,-3.380203
2021-05-25 11:41:22.441510,-4.400589
2021-05-25 11:41:22.457140,-4.88205
2021-05-25 11:41:22.472760,-4.58667
2021-05-25 11:41:22.488390,-3.323441
2021-05-25 11:41:22.504010,-1.04081
2021-05-25 11:41:22.519640,2.107109
2021-05-25 11:41:22.535270,5.775665
2021-05-25 11:41:22.550890,9.480919
2021-05-25 11:41:22.566520,12.69116
2021-05-25 11:41:22.582140,14.95361
2021-05-25 11:41:22.597770,16.033
2021-05-25 11:41:22.613390,15.97812
2021-05-25 11:41:22.629020,15.1081
2021-05-25 11:41:22.644650,13.8375
2021-05-25 11:41:22.660270,12.45061
2021-05-25 11:41:22.675900,11.01836
2021-05-25 11:41:22.691520,9.428871
2021-05-25 11:41:22.707150,7.624863
2021-05-25 11:41:22.722770,5.815308
2021-05-25 11:41:22.738400,4.477623
2021-05-25 11:41:22.754030,4.19165
2021-05-25 11:41:22.769650,5.325142
2021-05-25 11:41:22.785280,7.844574
2021-05-25 11:41:22.800900,11.34943
2021-05-25 11:41:22.816530,15.30479
2021-05-25 11:41:22.832150,19.32532
2021-05-25 11:41:22.847780,23.23817
2021-05-25 11:41:22.863410,26.97934
2021-05-25 11:41:22.879030,30.34816
2021-05-25 11:41:22.894660,33.0154
2021-05-25 11:41:22.910280,34.66681
2021-05-25 11:41:22.925910,35.37253
2021-05-25 11:41:22.941530,35.64929
2021-05-25 11:41:22.957160,36.29826
2021-05-25 11:41:22.972790,37.92381
2021-05-25 11:41:22.988410,40.61122
2021-05-25 11:41:23.004040,43.93152
2021-05-25 11:41:23.019660,47.25308
2021-05-25 11:41:23.035290,50.15979
2021-05-25 11:41:23.050910,52.60486
2021-05-25 11:41:23.066540,54.75568
2021-05-25 11:41:23.082170,56.62564
2021-05-25 11:41:23.097790,57.82254
2021-05-25 11:41:23.113420,57.61655
2021-05-25 11:41:23.129040,55.32567
2021-05-25 11:41:23.144670,50.8031
2021-05-25 11:41:23.160290,44.63423
2021-05-25 11:41:23.175920,38.00792
2021-05-25 11:41:23.191550,32.25505
2021-05-25 11:41:23.222800,26.68797
2021-05-25 11:41:23.238420,27.02834
2021-05-25 11:41:23.254050,28.78973
2021-05-25 11:41:23.269670,31.33434
2021-05-25 11:41:23.285300,34.1852
2021-05-25 11:41:23.300930,37.04565
2021-05-25 11:41:23.316550,39.71664
2021-05-25 11:41:23.332180,41.91495
2021-05-25 11:41:23.347800,43.19739
2021-05-25 11:41:23.363430,43.0538
2021-05-25 11:41:23.379050,41.15344
2021-05-25 11:41:23.394680,37.5567
2021-05-25 11:41:23.410310,32.8616
2021-05-25 11:41:23.425930,28.14066
2021-05-25 11:41:23.441560,24.64078
2021-05-25 11:41:23.457180,23.36798
2021-05-25 11:41:23.472810,24.68253
2021-05-25 11:41:23.488430,28.03601
2021-05-25 11:41:23.504060,31.99759
2021-05-25 11:41:23.519690,34.52206
2021-05-25 11:41:23.535310,33.44489
2021-05-25 11:41:23.550940,27.07358
2021-05-25 11:41:23.566560,14.79553
2021-05-25 11:41:23.582190,-2.506592
2021-05-25 11:41:23.597820,-22.45456
2021-05-25 11:41:23.613440,-41.79895
2021-05-25 11:41:23.629070,-57.44678
2021-05-25 11:41:23.644690,-67.47125
2021-05-25 11:41:23.660320,-71.6821
2021-05-25 11:41:23.675940,-71.42551
2021-05-25 11:41:23.691570,-68.74496
2021-05-25 11:41:23.707200,-65.39893
2021-05-25 11:41:23.722820,-62.27097
2021-05-25 11:41:23.738450,-59.40594
2021-05-25 11:41:23.754070,-56.5668
2021-05-25 11:41:23.769700,-53.76883
2021-05-25 11:41:23.785320,-51.45718
2021-05-25 11:41:23.800950,-50.27084
2021-05-25 11:41:23.816580,-50.51923
2021-05-25 11:41:23.832200,-51.89984
2021-05-25 11:41:23.847830,-53.59479
2021-05-25 11:41:23.863450,-54.72632
2021-05-25 11:41:23.879080,-54.75531
2021-05-25 11:41:23.894700,-53.68176
2021-05-25 11:41:23.910330,-51.90491
2021-05-25 11:41:23.925960,-49.92554
2021-05-25 11:41:23.941580,-48.08142
2021-05-25 11:41:23.957210,-46.48773
2021-05-25 11:41:23.972830,-45.06775
2021-05-25 11:41:23.988460,-43.70465
2021-05-25 11:41:24.004080,-42.35358
2021-05-25 11:41:24.019710,-41.08423
2021-05-25 11:41:24.035340,-40.04596
2021-05-25 11:41:24.050960,-39.42145
2021-05-25 11:41:24.066590,-39.34125
2021-05-25 11:41:24.082210,-39.82031
2021-05-25 11:41:24.097840,-40.68689
2021-05-25 11:41:24.113460,-41.58221
2021-05-25 11:41:24.129090,-42.06683
2021-05-25 11:41:24.144720,-41.70398
2021-05-25 11:41:24.160340,-40.15997
2021-05-25 11:41:24.175970,-37.28271
2021-05-25 11:41:24.191590,-33.12915
2021-05-25 11:41:24.207220,-27.99524
2021-05-25 11:41:24.222840,-22.41711
2021-05-25 11:41:24.238470,-17.11993
2021-05-25 11:41:24.254100,-12.89032
2021-05-25 11:41:24.269720,-10.27008
2021-05-25 11:41:24.285350,-9.341309
2021-05-25 11:41:24.300970,-9.599609
2021-05-25 11:41:24.332220,-9.932983
2021-05-25 11:41:24.347850,-8.46106
2021-05-25 11:41:24.363480,-5.741028
2021-05-25 11:41:24.379100,-2.396057
2021-05-25 11:41:24.394730,0.7213135
2021-05-25 11:41:24.410350,2.931213
2021-05-25 11:41:24.425980,4.003967
2021-05-25 11:41:24.441600,4.181641
2021-05-25 11:41:24.457230,3.94281
2021-05-25 11:41:24.472860,3.664551
2021-05-25 11:41:24.488480,3.45697
2021-05-25 11:41:24.504110,3.137878
2021-05-25 11:41:24.519730,2.415649
2021-05-25 11:41:24.535360,1.087219
2021-05-25 11:41:24.550980,-0.8868408
2021-05-25 11:41:24.566610,-3.369324
2021-05-25 11:41:24.582240,-6.136963
2021-05-25 11:41:24.597860,-8.954041
2021-05-25 11:41:24.613490,-11.64941
2021-05-25 11:41:24.629110,-14.12122
2021-05-25 11:41:24.644740,-16.35107
2021-05-25 11:41:24.660360,-18.37775
2021-05-25 11:41:24.675990,-20.21326
2021-05-25 11:41:24.691620,-21.83826
2021-05-25 11:41:24.707240,-23.15393
2021-05-25 11:41:24.722870,-24.00958
2021-05-25 11:41:24.738490,-24.26477
2021-05-25 11:41:24.754120,-23.88428
2021-05-25 11:41:24.769740,-22.96265
2021-05-25 11:41:24.785370,-21.7442
2021-05-25 11:41:24.801000,-20.5127
2021-05-25 11:41:24.816620,-19.47131
2021-05-25 11:41:24.832250,-18.70367
2021-05-25 11:41:24.847870,-18.15424
2021-05-25 11:41:24.863500,-17.75555
2021-05-25 11:41:24.879120,-17.5014
2021-05-25 11:41:24.894750,-17.41229
2021-05-25 11:41:24.910380,-17.45923
2021-05-25 11:41:24.926000,-17.49738
2021-05-25 11:41:24.941630,-17.2785
2021-05-25 11:41:24.957250,-16.5755
2021-05-25 11:41:24.972880,-15.36115
2021-05-25 11:41:24.988500,-13.83679
2021-05-25 11:41:25.004130,-12.3999
2021-05-25 11:41:25.019760,-11.41534
2021-05-25 11:41:25.035380,-10.99042
2021-05-25 11:41:25.051010,-10.90131
2021-05-25 11:41:25.066630,-10.63989
2021-05-25 11:41:25.082260,-9.658875
2021-05-25 11:41:25.097880,-7.580688
2021-05-25 11:41:25.113510,-4.343933
2021-05-25 11:41:25.129140,-0.2043457
2021-05-25 11:41:25.144760,4.38739
2021-05-25 11:41:25.160390,8.942932
2021-05-25 11:41:25.176010,13.04553
2021-05-25 11:41:25.191640,16.39166
2021-05-25 11:41:25.207260,18.81232
2021-05-25 11:41:25.222890,20.28467
2021-05-25 11:41:25.238520,20.95068
2021-05-25 11:41:25.254140,21.09314
2021-05-25 11:41:25.269770,21.05109
2021-05-25 11:41:25.285390,21.09113
2021-05-25 11:41:25.301020,21.28607
2021-05-25 11:41:25.316640,21.5285
2021-05-25 11:41:25.332270,21.60077
2021-05-25 11:41:25.347900,21.35461
2021-05-25 11:41:25.363520,20.78296
2021-05-25 11:41:25.379150,19.99377
2021-05-25 11:41:25.394770,19.0697
2021-05-25 11:41:25.410400,17.88885
2021-05-25 11:41:25.426020,16.05444
2021-05-25 11:41:25.441650,12.98669
2021-05-25 11:41:25.457280,8.199829
2021-05-25 11:41:25.472900,1.515869
2021-05-25 11:41:25.488530,-6.705322
2021-05-25 11:41:25.504150,-15.67261
2021-05-25 11:41:25.519780,-24.31915
2021-05-25 11:41:25.535400,-31.59058
2021-05-25 11:41:25.551030,-36.66644
2021-05-25 11:41:25.566660,-39.12616
2021-05-25 11:41:25.582280,-38.95978
2021-05-25 11:41:25.597910,-36.50598
2021-05-25 11:41:25.613530,-32.36426
2021-05-25 11:41:25.629160,-27.22571
2021-05-25 11:41:25.644780,-21.75964
2021-05-25 11:41:25.660410,-16.52466
2021-05-25 11:41:25.676040,-11.93146
2021-05-25 11:41:25.691660,-8.236511
2021-05-25 11:41:25.707290,-5.54248
2021-05-25 11:41:25.722910,-3.789612
2021-05-25 11:41:25.738540,-2.786255
2021-05-25 11:41:25.754160,-2.258423
2021-05-25 11:41:25.769790,-1.89801
2021-05-25 11:41:25.785420,-1.449402
2021-05-25 11:41:25.801040,-0.7480469
2021-05-25 11:41:25.816670,0.2706299
2021-05-25 11:41:25.832290,1.586365
2021-05-25 11:41:25.847920,3.106506
2021-05-25 11:41:25.863540,4.726135
2021-05-25 11:41:25.879170,6.264709
2021-05-25 11:41:25.894800,7.502197
2021-05-25 11:41:25.910420,8.211914
2021-05-25 11:41:25.926050,8.220398
2021-05-25 11:41:25.941670,7.46521
2021-05-25 11:41:25.957300,6.017944
2021-05-25 11:41:25.972920,4.007385
2021-05-25 11:41:25.988550,1.549622
2021-05-25 11:41:26.004180,-1.291199
2021-05-25 11:41:26.019800,-4.526428
2021-05-25 11:41:26.035430,-8.180054
2021-05-25 11:41:26.051050,-12.20374
2021-05-25 11:41:26.066680,-16.42432
2021-05-25 11:41:26.082300,-20.54926
2021-05-25 11:41:26.097930,-24.21759
2021-05-25 11:41:26.113560,-27.0495
2021-05-25 11:41:26.129180,-28.70203
2021-05-25 11:41:26.144810,-28.93054
2021-05-25 11:41:26.160430,-27.6828
2021-05-25 11:41:26.176060,-25.16003
2021-05-25 11:41:26.191690,-21.78632
2021-05-25 11:41:26.207310,-18.11096
2021-05-25 11:41:26.222940,-14.62567
2021-05-25 11:41:26.238560,-11.61804
2021-05-25 11:41:26.254190,-9.112061
2021-05-25 11:41:26.269810,-6.932983
2021-05-25 11:41:26.285440,-4.854309
2021-05-25 11:41:26.301070,-2.729797
2021-05-25 11:41:26.316690,-0.5461426
2021-05-25 11:41:26.332320,1.62915
2021-05-25 11:41:26.347940,3.656677
2021-05-25 11:41:26.363570,5.396057
2021-05-25 11:41:26.379190,6.710693
2021-05-25 11:41:26.394820,7.522034
2021-05-25 11:41:26.410450,7.846436
2021-05-25 11:41:26.426070,7.823608
2021-05-25 11:41:26.441700,7.683441
2021-05-25 11:41:26.457320,7.67569
2021-05-25 11:41:26.472950,7.94577
2021-05-25 11:41:26.488570,8.485168
2021-05-25 11:41:26.504200,9.153839
2021-05-25 11:41:26.519830,9.785767
2021-05-25 11:41:26.535450,10.30032
2021-05-25 11:41:26.551080,10.68481
2021-05-25 11:41:26.566700,10.95425
2021-05-25 11:41:26.582330,11.0715
2021-05-25 11:41:26.597950,10.93823
2021-05-25 11:41:26.613580,10.42465
2021-05-25 11:41:26.629210,9.485748
2021-05-25 11:41:26.644830,8.280731
2021-05-25 11:41:26.660460,7.105469
2021-05-25 11:41:26.676080,6.285583
2021-05-25 11:41:26.691710,5.980499
2021-05-25 11:41:26.707330,6.0755
2021-05-25 11:41:26.722960,6.23111
2021-05-25 11:41:26.738590,6.057892
2021-05-25 11:41:26.754210,5.308075
2021-05-25 11:41:26.769840,4.010101
2021-05-25 11:41:26.785460,2.458649
2021-05-25 11:41:26.801090,0.9587708
2021-05-25 11:41:26.816710,-0.4062195
2021-05-25 11:41:26.832340,-1.863861
2021-05-25 11:41:26.847970,-3.742004
2021-05-25 11:41:26.863590,-6.153748
2021-05-25 11:41:26.879220,-8.810669
2021-05-25 11:41:26.894840,-11.12579
2021-05-25 11:41:26.910470,-12.55365
2021-05-25 11:41:26.926090,-13.02664
2021-05-25 11:41:26.941720,-13.12579
2021-05-25 11:41:26.957350,-13.83606
2021-05-25 11:41:26.972970,-16.06738
2021-05-25 11:41:26.988600,-20.16534
2021-05-25 11:41:27.004220,-25.72433
2021-05-25 11:41:27.019850,-31.76389
2021-05-25 11:41:27.035470,-37.15894
2021-05-25 11:41:27.051100,-41.00845
2021-05-25 11:41:27.066730,-42.84012
2021-05-25 11:41:27.082350,-42.60193
2021-05-25 11:41:27.097980,-40.50531
2021-05-25 11:41:27.113600,-36.95294
2021-05-25 11:41:27.129230,-32.47455
2021-05-25 11:41:27.144850,-27.71671
2021-05-25 11:41:27.160480,-23.36807
2021-05-25 11:41:27.176110,-20.00198
2021-05-25 11:41:27.191730,-17.92401
2021-05-25 11:41:27.207360,-17.12341
2021-05-25 11:41:27.222980,-17.29373
2021-05-25 11:41:27.238610,-17.94113
2021-05-25 11:41:27.254230,-18.6069
2021-05-25 11:41:27.269860,-19.03577
2021-05-25 11:41:27.285490,-19.2309
2021-05-25 11:41:27.301110,-19.4346
2021-05-25 11:41:27.316740,-19.95145
2021-05-25 11:41:27.332360,-21.02649
2021-05-25 11:41:27.347990,-22.72464
2021-05-25 11:41:27.363610,-24.90656
2021-05-25 11:41:27.379240,-27.30939
2021-05-25 11:41:27.394870,-29.64951
2021-05-25 11:41:27.410490,-31.74838
2021-05-25 11:41:27.426120,-33.5488
2021-05-25 11:41:27.441740,-35.12357
2021-05-25 11:41:27.457370,-36.61589
2021-05-25 11:41:27.472990,-38.1626
2021-05-25 11:41:27.488620,-39.77577
2021-05-25 11:41:27.504250,-41.25896
2021-05-25 11:41:27.519870,-42.16873
2021-05-25 11:41:27.535500,-41.92924
2021-05-25 11:41:27.551120,-39.98293
2021-05-25 11:41:27.566750,-36.01003
2021-05-25 11:41:27.582370,-30.02312
2021-05-25 11:41:27.598000,-22.33044
2021-05-25 11:41:27.613630,-13.3
2021-05-25 11:41:27.629250,-3.095779
2021-05-25 11:41:27.644880,8.4664
2021-05-25 11:41:27.660500,21.84196
2021-05-25 11:41:27.676130,37.37724
2021-05-25 11:41:27.691750,54.95006
2021-05-25 11:41:27.707380,73.68155
2021-05-25 11:41:27.723010,91.96216
2021-05-25 11:41:27.738630,107.7505
2021-05-25 11:41:27.754260,119.063
2021-05-25 11:41:27.769880,124.42
2021-05-25 11:41:27.785510,123.1511
2021-05-25 11:41:27.801130,115.4619
2021-05-25 11:41:27.816760,102.3404
2021-05-25 11:41:27.832390,85.30168
2021-05-25 11:41:27.848010,66.10847
2021-05-25 11:41:27.863640,46.42298
2021-05-25 11:41:27.879260,27.55572
2021-05-25 11:41:27.894890,10.3604
2021-05-25 11:41:27.910510,-4.794388
2021-05-25 11:41:27.926140,-17.80508
2021-05-25 11:41:27.941770,-28.61924
2021-05-25 11:41:27.957390,-37.05564
2021-05-25 11:41:27.973020,-42.82273
2021-05-25 11:41:27.988640,-45.65804
2021-05-25 11:41:28.004270,-45.55758
2021-05-25 11:41:28.019890,-42.92171
2021-05-25 11:41:28.035520,-38.54444
2021-05-25 11:41:28.051150,-33.47915
2021-05-25 11:41:28.066770,-28.73286
2021-05-25 11:41:28.082400,-25.04768
2021-05-25 11:41:28.098020,-22.72728
2021-05-25 11:41:28.113650,-21.61472
2021-05-25 11:41:28.129270,-21.17565
2021-05-25 11:41:28.144900,-20.63273
2021-05-25 11:41:28.160530,-19.17005
2021-05-25 11:41:28.176150,-16.15484
2021-05-25 11:41:28.191780,-11.34134
2021-05-25 11:41:28.207400,-4.953003
2021-05-25 11:41:28.223030,2.342648
2021-05-25 11:41:28.238650,9.629047
2021-05-25 11:41:28.254280,16.03147
2021-05-25 11:41:28.269910,20.98164
2021-05-25 11:41:28.285530,24.38078
2021-05-25 11:41:28.301160,26.58765
2021-05-25 11:41:28.316780,28.25009
2021-05-25 11:41:28.332410,30.00967
2021-05-25 11:41:28.348030,32.36389
2021-05-25 11:41:28.363660,35.53754
2021-05-25 11:41:28.379290,39.52734
2021-05-25 11:41:28.394910,44.17227
2021-05-25 11:41:28.410540,49.23438
2021-05-25 11:41:28.426160,54.45408
2021-05-25 11:41:28.441790,59.56549
2021-05-25 11:41:28.457420,64.31659
2021-05-25 11:41:28.473040,68.48361
2021-05-25 11:41:28.488670,71.92078
2021-05-25 11:41:28.504290,74.55908
2021-05-25 11:41:28.519920,76.46406
2021-05-25 11:41:28.535540,77.81673
2021-05-25 11:41:28.551170,78.8231
2021-05-25 11:41:28.566800,79.5188
2021-05-25 11:41:28.582420,79.52689
2021-05-25 11:41:28.598050,77.98141
2021-05-25 11:41:28.613670,73.69672
2021-05-25 11:41:28.629300,65.70628
2021-05-25 11:41:28.644920,53.88675
2021-05-25 11:41:28.660550,39.29898
2021-05-25 11:41:28.676180,23.97913
2021-05-25 11:41:28.691800,10.1586
2021-05-25 11:41:28.707430,-0.6772156
2021-05-25 11:41:28.723050,-8.422195
2021-05-25 11:41:28.738680,-14.19528
2021-05-25 11:41:28.754300,-19.64787
2021-05-25 11:41:28.769930,-25.98907
2021-05-25 11:41:28.785560,-33.40578
2021-05-25 11:41:28.801180,-41.08617
2021-05-25 11:41:28.816810,-47.74892
2021-05-25 11:41:28.832430,-52.29793
2021-05-25 11:41:28.848060,-54.17996
2021-05-25 11:41:28.863680,-53.38104
2021-05-25 11:41:28.879310,-50.15408
2021-05-25 11:41:28.894940,-44.84839
2021-05-25 11:41:28.910560,-37.86996
2021-05-25 11:41:28.926190,-29.8119
2021-05-25 11:41:28.941810,-21.49812
2021-05-25 11:41:28.957440,-13.85175
2021-05-25 11:41:28.973060,-7.590759
2021-05-25 11:41:28.988690,-2.881256
2021-05-25 11:41:29.004320,0.7872467
2021-05-25 11:41:29.019940,4.47464
2021-05-25 11:41:29.035570,9.369705
2021-05-25 11:41:29.051190,16.26454
2021-05-25 11:41:29.066820,25.16251
2021-05-25 11:41:29.082440,35.13467
2021-05-25 11:41:29.098070,44.62592
2021-05-25 11:41:29.113700,52.01349
2021-05-25 11:41:29.129320,56.2822
2021-05-25 11:41:29.144950,57.49266
2021-05-25 11:41:29.160570,56.9249
2021-05-25 11:41:29.176200,56.7675
2021-05-25 11:41:29.191820,59.49089
2021-05-25 11:41:29.207450,67.07854
2021-05-25 11:41:29.223080,80.36435
2021-05-25 11:41:29.238700,98.76848
2021-05-25 11:41:29.254330,120.3647
2021-05-25 11:41:29.269950,142.448
2021-05-25 11:41:29.285580,162.255
2021-05-25 11:41:29.301200,177.6373
2021-05-25 11:41:29.316830,187.3145
2021-05-25 11:41:29.332460,190.7421
2021-05-25 11:41:29.348080,187.6826
2021-05-25 11:41:29.363710,177.9361
2021-05-25 11:41:29.379330,161.3786
2021-05-25 11:41:29.394960,138.2835
2021-05-25 11:41:29.410580,109.6001
2021-05-25 11:41:29.426210,76.90112
2021-05-25 11:41:29.441840,42.07426
2021-05-25 11:41:29.457460,6.91053
2021-05-25 11:41:29.473090,-27.06513
2021-05-25 11:41:29.488710,-58.54329
2021-05-25 11:41:29.504340,-86.2998
2021-05-25 11:41:29.519960,-109.2278
2021-05-25 11:41:29.535590,-126.5215
2021-05-25 11:41:29.551220,-137.9399
2021-05-25 11:41:29.566840,-143.8569
2021-05-25 11:41:29.582470,-145.0139
2021-05-25 11:41:29.598090,-142.1962
2021-05-25 11:41:29.613720,-136.0075
2021-05-25 11:41:29.629340,-127.0047
2021-05-25 11:41:29.644970,-115.9916
2021-05-25 11:41:29.660600,-104.1842
2021-05-25 11:41:29.676220,-93.01315
2021-05-25 11:41:29.691850,-83.61061
2021-05-25 11:41:29.707470,-76.3354
2021-05-25 11:41:29.723100,-70.63474
2021-05-25 11:41:29.738720,-65.37282
2021-05-25 11:41:29.754350,-59.47437
2021-05-25 11:41:29.769980,-52.48564
2021-05-25 11:41:29.785600,-44.83352
2021-05-25 11:41:29.801230,-37.63015
2021-05-25 11:41:29.816850,-32.18482
2021-05-25 11:41:29.832480,-29.34241
2021-05-25 11:41:29.848100,-29.14378
2021-05-25 11:41:29.863730,-30.75573
2021-05-25 11:41:29.879360,-32.9203
2021-05-25 11:41:29.894980,-34.47318
2021-05-25 11:41:29.910610,-34.77613
2021-05-25 11:41:29.926230,-33.75061
2021-05-25 11:41:29.941860,-31.60596
2021-05-25 11:41:29.957480,-28.44942
2021-05-25 11:41:29.973110,-24.05291
2021-05-25 11:41:29.988740,-17.97881
2021-05-25 11:41:30.004360,-9.882336
2021-05-25 11:41:30.019990,0.1169586
2021-05-25 11:41:30.035610,11.46402
2021-05-25 11:41:30.051240,23.40607
2021-05-25 11:41:30.066860,35.28738
2021-05-25 11:41:30.082490,46.54816
2021-05-25 11:41:30.098120,56.48443
2021-05-25 11:41:30.113740,64.01433
2021-05-25 11:41:30.129370,67.74704
2021-05-25 11:41:30.144990,66.63007
2021-05-25 11:41:30.160620,60.63572
2021-05-25 11:41:30.176240,51.12791
2021-05-25 11:41:30.191870,40.51023
2021-05-25 11:41:30.207500,31.24197
2021-05-25 11:41:30.223120,24.73376
2021-05-25 11:41:30.238750,20.74789
2021-05-25 11:41:30.254370,17.67638
2021-05-25 11:41:30.270000,13.40862
2021-05-25 11:41:30.285620,6.477646
2021-05-25 11:41:30.301250,-3.330254
2021-05-25 11:41:30.316880,-14.99571
2021-05-25 11:41:30.332500,-26.91949
2021-05-25 11:41:30.348130,-37.6062
2021-05-25 11:41:30.363750,-46.01521
2021-05-25 11:41:30.379380,-51.50276
2021-05-25 11:41:30.395000,-53.62023
2021-05-25 11:41:30.410630,-52.10742
2021-05-25 11:41:30.426260,-47.12303
2021-05-25 11:41:30.441880,-39.61278
2021-05-25 11:41:30.457510,-31.3633
2021-05-25 11:41:30.473130,-24.49907
2021-05-25 11:41:30.488760,-20.49615
2021-05-25 11:41:30.504380,-19.38384
2021-05-25 11:41:30.520010,-19.68089
2021-05-25 11:41:30.535640,-19.26655
2021-05-25 11:41:30.551260,-16.75629
2021-05-25 11:41:30.566890,-12.39523
2021-05-25 11:41:30.582510,-7.908501
2021-05-25 11:41:30.598140,-5.318245
2021-05-25 11:41:30.613770,-5.551285
2021-05-25 11:41:30.629390,-7.806168
2021-05-25 11:41:30.645020,-10.13787
2021-05-25 11:41:30.660640,-10.82848
2021-05-25 11:41:30.676270,-9.632019
2021-05-25 11:41:30.691890,-7.990578
2021-05-25 11:41:30.707520,-8.076645
2021-05-25 11:41:30.723150,-11.31779
2021-05-25 11:41:30.738770,-17.40907
2021-05-25 11:41:30.754400,-24.43738
2021-05-25 11:41:30.770020,-30.0482
2021-05-25 11:41:30.785650,-32.78831
2021-05-25 11:41:30.801270,-32.81506
2021-05-25 11:41:30.816900,-31.47936
2021-05-25 11:41:30.832530,-30.34267
2021-05-25 11:41:30.848150,-30.23718
2021-05-25 11:41:30.863780,-30.95718
2021-05-25 11:41:30.879400,-31.72316
2021-05-25 11:41:30.895030,-31.95424
2021-05-25 11:41:30.910650,-31.7588
2021-05-25 11:41:30.926280,-31.82863
2021-05-25 11:41:30.941910,-32.80632
2021-05-25 11:41:30.957530,-34.6608
2021-05-25 11:41:30.973160,-36.58995
2021-05-25 11:41:30.988780,-37.42529
2021-05-25 11:41:31.004410,-36.41786
2021-05-25 11:41:31.020030,-33.74998
2021-05-25 11:41:31.035660,-30.43541
2021-05-25 11:41:31.051290,-27.70929
2021-05-25 11:41:31.066910,-26.38205
2021-05-25 11:41:31.082540,-26.50565
2021-05-25 11:41:31.098160,-27.52004
2021-05-25 11:41:31.113790,-28.78836
2021-05-25 11:41:31.129410,-29.9513
2021-05-25 11:41:31.145040,-31.0045
2021-05-25 11:41:31.160670,-32.10033
2021-05-25 11:41:31.176290,-33.27434
2021-05-25 11:41:31.191920,-34.3672
2021-05-25 11:41:31.207540,-35.18339
2021-05-25 11:41:31.223170,-35.75934
2021-05-25 11:41:31.238790,-36.49841
2021-05-25 11:41:31.254420,-38.12656
2021-05-25 11:41:31.270050,-41.3627
2021-05-25 11:41:31.285670,-46.51202
2021-05-25 11:41:31.301300,-53.15469
2021-05-25 11:41:31.316920,-60.07571
2021-05-25 11:41:31.332550,-65.52384
2021-05-25 11:41:31.348170,-67.68703
2021-05-25 11:41:31.363800,-65.09164
2021-05-25 11:41:31.379430,-56.88498
2021-05-25 11:41:31.395050,-42.90963
2021-05-25 11:41:31.410680,-23.62352
2021-05-25 11:41:31.426300,0.02280045
2021-05-25 11:41:31.441930,26.60246
2021-05-25 11:41:31.457550,54.34037
2021-05-25 11:41:31.473180,81.16751
2021-05-25 11:41:31.488810,105.0524
2021-05-25 11:41:31.504430,124.3204
2021-05-25 11:41:31.520060,137.9516
2021-05-25 11:41:31.535680,145.688
2021-05-25 11:41:31.551310,147.9972
2021-05-25 11:41:31.566930,145.777
2021-05-25 11:41:31.582560,140.1637
2021-05-25 11:41:31.598190,132.4198
2021-05-25 11:41:31.613810,123.8164
2021-05-25 11:41:31.629440,115.5245
2021-05-25 11:41:31.645060,108.3706
2021-05-25 11:41:31.660690,102.6308
2021-05-25 11:41:31.676310,97.98189
2021-05-25 11:41:31.691940,93.74999
2021-05-25 11:41:31.707570,89.31142
2021-05-25 11:41:31.723190,84.438
2021-05-25 11:41:31.738820,79.38284
2021-05-25 11:41:31.754440,74.51305
2021-05-25 11:41:31.770070,69.79967
2021-05-25 11:41:31.785690,64.45319
2021-05-25 11:41:31.801320,57.05106
2021-05-25 11:41:31.816950,46.20206
2021-05-25 11:41:31.832570,31.50959
2021-05-25 11:41:31.848200,14.13166
2021-05-25 11:41:31.863820,-3.381584
2021-05-25 11:41:31.879450,-18.05424
2021-05-25 11:41:31.895070,-27.78871
2021-05-25 11:41:31.910700,-32.3002
2021-05-25 11:41:31.926330,-33.1892
2021-05-25 11:41:31.941950,-33.12908
2021-05-25 11:41:31.957580,-34.70334
2021-05-25 11:41:31.973200,-39.43714
2021-05-25 11:41:31.988830,-47.57885
2021-05-25 11:41:32.004450,-58.49989
2021-05-25 11:41:32.035710,-85.11213
2021-05-25 11:41:32.051330,-99.10036
2021-05-25 11:41:32.066960,-112.2942
2021-05-25 11:41:32.082580,-123.6905
2021-05-25 11:41:32.098210,-132.5708
2021-05-25 11:41:32.113830,-138.8436
2021-05-25 11:41:32.129460,-143.0536
2021-05-25 11:41:32.145090,-145.9073
2021-05-25 11:41:32.160710,-147.6992
2021-05-25 11:41:32.176340,-148.0027
2021-05-25 11:41:32.191960,-145.9885
2021-05-25 11:41:32.207590,-141.0346
2021-05-25 11:41:32.223210,-133.2399
2021-05-25 11:41:32.238840,-123.3099
2021-05-25 11:41:32.254470,-111.9394
2021-05-25 11:41:32.270090,-99.20654
2021-05-25 11:41:32.285720,-84.40712
2021-05-25 11:41:32.301340,-66.56638
2021-05-25 11:41:32.316970,-45.31108
2021-05-25 11:41:32.332590,-21.39301
2021-05-25 11:41:32.348220,3.475311
2021-05-25 11:41:32.363850,27.36029
2021-05-25 11:41:32.379470,48.91162
2021-05-25 11:41:32.395100,67.63786
2021-05-25 11:41:32.410720,83.58818
2021-05-25 11:41:32.426350,96.74841
2021-05-25 11:41:32.441970,106.7104
2021-05-25 11:41:32.457600,112.81
2021-05-25 11:41:32.473230,114.7285
2021-05-25 11:41:32.488850,113.0258
2021-05-25 11:41:32.504480,109.1575
2021-05-25 11:41:32.520100,104.9695
2021-05-25 11:41:32.535730,101.8684
2021-05-25 11:41:32.551350,100.194
2021-05-25 11:41:32.566980,99.16176
2021-05-25 11:41:32.582610,97.36763
2021-05-25 11:41:32.598230,93.49518
2021-05-25 11:41:32.613860,86.94888
2021-05-25 11:41:32.629480,77.95753
2021-05-25 11:41:32.645110,67.32291
2021-05-25 11:41:32.660730,55.96915
2021-05-25 11:41:32.676360,44.61136
2021-05-25 11:41:32.691990,33.61841
2021-05-25 11:41:32.707610,23.11624
2021-05-25 11:41:32.723240,13.15442
2021-05-25 11:41:32.738860,3.745056
2021-05-25 11:41:32.754490,-5.064362
2021-05-25 11:41:32.770110,-13.22556
2021-05-25 11:41:32.785740,-20.70947
2021-05-25 11:41:32.801370,-27.41754
2021-05-25 11:41:32.816990,-33.23138
2021-05-25 11:41:32.832620,-38.04654
2021-05-25 11:41:32.848240,-41.84564
2021-05-25 11:41:32.863870,-44.76752
2021-05-25 11:41:32.879490,-47.07153
2021-05-25 11:41:32.895120,-48.96091
2021-05-25 11:41:32.910750,-50.4407
2021-05-25 11:41:32.926370,-51.24686
2021-05-25 11:41:32.942000,-50.93237
2021-05-25 11:41:32.957620,-49.05325
2021-05-25 11:41:32.973250,-45.37122
2021-05-25 11:41:32.988870,-39.97223
2021-05-25 11:41:33.004500,-33.23441
2021-05-25 11:41:33.020130,-25.72012
2021-05-25 11:41:33.035750,-17.98776
2021-05-25 11:41:33.051380,-10.49161
2021-05-25 11:41:33.067000,-3.580414
2021-05-25 11:41:33.098250,7.472626
2021-05-25 11:41:33.113880,11.19699
2021-05-25 11:41:33.129510,13.6138
2021-05-25 11:41:33.145130,14.83664
2021-05-25 11:41:33.160760,15.12369
2021-05-25 11:41:33.176380,14.83582
2021-05-25 11:41:33.192010,14.35196
2021-05-25 11:41:33.207630,13.95578
2021-05-25 11:41:33.223260,13.85248
2021-05-25 11:41:33.238890,14.09219
2021-05-25 11:41:33.254510,14.60217
2021-05-25 11:41:33.270140,15.18298
2021-05-25 11:41:33.285760,15.58456
2021-05-25 11:41:33.301390,15.59747
2021-05-25 11:41:33.317020,15.17279
2021-05-25 11:41:33.332640,14.50537
2021-05-25 11:41:33.348270,13.99023
2021-05-25 11:41:33.363890,14.108
2021-05-25 11:41:33.379520,15.16388
2021-05-25 11:41:33.395140,17.14606
2021-05-25 11:41:33.410770,19.73633
2021-05-25 11:41:33.426400,22.44012
2021-05-25 11:41:33.442020,24.797
2021-05-25 11:41:33.457650,26.54111
2021-05-25 11:41:33.473270,27.66223
2021-05-25 11:41:33.488900,28.31238
2021-05-25 11:41:33.504520,28.72672
2021-05-25 11:41:33.520150,29.11029
2021-05-25 11:41:33.535780,29.58978
2021-05-25 11:41:33.551400,30.21283
2021-05-25 11:41:33.567030,30.98315
2021-05-25 11:41:33.582650,31.84155
2021-05-25 11:41:33.598280,32.69315
2021-05-25 11:41:33.613900,33.39896
2021-05-25 11:41:33.629530,33.7822
2021-05-25 11:41:33.645160,33.64313
2021-05-25 11:41:33.660780,32.81097
2021-05-25 11:41:33.676410,31.19437
2021-05-25 11:41:33.692030,28.81427
2021-05-25 11:41:33.707660,25.86301
2021-05-25 11:41:33.723280,22.74228
2021-05-25 11:41:33.738910,19.94775
2021-05-25 11:41:33.754540,17.95166
2021-05-25 11:41:33.770160,16.93829
2021-05-25 11:41:33.785790,16.7645
2021-05-25 11:41:33.801410,16.98868
2021-05-25 11:41:33.817040,17.12839
2021-05-25 11:41:33.832660,16.94348
2021-05-25 11:41:33.848290,16.62097
2021-05-25 11:41:33.863920,16.66608
2021-05-25 11:41:33.879540,17.5918
2021-05-25 11:41:33.895170,19.63339
2021-05-25 11:41:33.910790,22.55368
2021-05-25 11:41:33.926420,25.77643
2021-05-25 11:41:33.942040,28.66751
2021-05-25 11:41:33.957670,30.87631
2021-05-25 11:41:33.973300,32.45584
2021-05-25 11:41:33.988920,33.79791
2021-05-25 11:41:34.004550,35.39261
2021-05-25 11:41:34.020170,37.54623
2021-05-25 11:41:34.035800,40.27176
2021-05-25 11:41:34.051420,43.30869
2021-05-25 11:41:34.067050,46.33279
2021-05-25 11:41:34.082680,49.13083
2021-05-25 11:41:34.098300,51.72839
2021-05-25 11:41:34.113930,54.35974
2021-05-25 11:41:34.129550,57.29584
2021-05-25 11:41:34.145180,60.61157
2021-05-25 11:41:34.160800,64.11749
2021-05-25 11:41:34.176430,67.51529
2021-05-25 11:41:34.192060,70.53778
2021-05-25 11:41:34.207680,73.17023
2021-05-25 11:41:34.223310,75.57846
2021-05-25 11:41:34.238930,77.85458
2021-05-25 11:41:34.254560,79.74454
2021-05-25 11:41:34.270180,80.54825
2021-05-25 11:41:34.285810,79.40381
2021-05-25 11:41:34.301440,75.76398
2021-05-25 11:41:34.317060,69.80869
2021-05-25 11:41:34.332690,62.43832
2021-05-25 11:41:34.348310,54.86899
2021-05-25 11:41:34.363940,47.97659
2021-05-25 11:41:34.379560,41.84732
2021-05-25 11:41:34.395190,35.82802
2021-05-25 11:41:34.410820,29.03252
2021-05-25 11:41:34.426440,20.9556
2021-05-25 11:41:34.442070,11.79605
2021-05-25 11:41:34.457690,2.281204
2021-05-25 11:41:34.473320,-6.829147
2021-05-25 11:41:34.488940,-15.15045
2021-05-25 11:41:34.504570,-22.75397
2021-05-25 11:41:34.520200,-29.88799
2021-05-25 11:41:34.535820,-36.54175
2021-05-25 11:41:34.551450,-42.29524
2021-05-25 11:41:34.567070,-46.48557
2021-05-25 11:41:34.582700,-48.66679
2021-05-25 11:41:34.598320,-48.98276
2021-05-25 11:41:34.613950,-48.19966
2021-05-25 11:41:34.629580,-47.32925
2021-05-25 11:41:34.645200,-47.12094
2021-05-25 11:41:34.660830,-47.73029
2021-05-25 11:41:34.676450,-48.65385
2021-05-25 11:41:34.692080,-49.05363
2021-05-25 11:41:34.707700,-48.08733
2021-05-25 11:41:34.723330,-45.21754
2021-05-25 11:41:34.738960,-40.34248
2021-05-25 11:41:34.754580,-33.86541
2021-05-25 11:41:34.770210,-26.57326
2021-05-25 11:41:34.785830,-19.46766
2021-05-25 11:41:34.801460,-13.49431
2021-05-25 11:41:34.817080,-9.176552
2021-05-25 11:41:34.832710,-6.433207
2021-05-25 11:41:34.848340,-4.575331
2021-05-25 11:41:34.863960,-2.625698
2021-05-25 11:41:34.879590,0.2741671
2021-05-25 11:41:34.895210,4.47892
2021-05-25 11:41:34.910840,9.736738
2021-05-25 11:41:34.926460,15.25347
2021-05-25 11:41:34.942090,19.89051
2021-05-25 11:41:34.957720,22.32543
2021-05-25 11:41:34.973340,21.21754
2021-05-25 11:41:34.988970,15.5078
2021-05-25 11:41:35.004590,4.795414
2021-05-25 11:41:35.020220,-10.31671
2021-05-25 11:41:35.035840,-28.16122
2021-05-25 11:41:35.051470,-46.48327
2021-05-25 11:41:35.067100,-63.28371
2021-05-25 11:41:35.082720,-77.5215
2021-05-25 11:41:35.098350,-89.41238
2021-05-25 11:41:35.113970,-100.0403
2021-05-25 11:41:35.129600,-110.5814
2021-05-25 11:41:35.145220,-121.5485
2021-05-25 11:41:35.160850,-132.4126
2021-05-25 11:41:35.176480,-141.774
2021-05-25 11:41:35.192100,-148.0253
2021-05-25 11:41:35.207730,-150.0656
2021-05-25 11:41:35.223350,-147.6909
2021-05-25 11:41:35.238980,-141.6181
2021-05-25 11:41:35.254600,-133.136
2021-05-25 11:41:35.270230,-123.5981
2021-05-25 11:41:35.285860,-114.0775
2021-05-25 11:41:35.301480,-105.3409
2021-05-25 11:41:35.317110,-97.99435
2021-05-25 11:41:35.332730,-92.68826
2021-05-25 11:41:35.348360,-90.06214
2021-05-25 11:41:35.363980,-90.50484
2021-05-25 11:41:35.379610,-93.83607
2021-05-25 11:41:35.410860,-105.1343
2021-05-25 11:41:35.426490,-110.2109
2021-05-25 11:41:35.442110,-113.1875
2021-05-25 11:41:35.457740,-113.1559
2021-05-25 11:41:35.473370,-109.3379
2021-05-25 11:41:35.488990,-101.0048
2021-05-25 11:41:35.504620,-87.72742
2021-05-25 11:41:35.520240,-69.91234
2021-05-25 11:41:35.535870,-49.06572
2021-05-25 11:41:35.551490,-27.5093
2021-05-25 11:41:35.567120,-7.487473
2021-05-25 11:41:35.582750,9.872691
2021-05-25 11:41:35.598370,24.88775
2021-05-25 11:41:35.614000,38.6639
2021-05-25 11:41:35.629620,51.77367
2021-05-25 11:41:35.645250,63.09159
2021-05-25 11:41:35.660870,69.73483
2021-05-25 11:41:35.676500,68.3165
2021-05-25 11:41:35.692130,56.75826
2021-05-25 11:41:35.707750,35.60874
2021-05-25 11:41:35.723380,8.20414
2021-05-25 11:41:35.739000,-20.56241
2021-05-25 11:41:35.754630,-46.07646
2021-05-25 11:41:35.770250,-65.42699
2021-05-25 11:41:35.785880,-77.71752
2021-05-25 11:41:35.801510,-83.4126
2021-05-25 11:41:35.817130,-83.32944
2021-05-25 11:41:35.832760,-77.96414
2021-05-25 11:41:35.848380,-67.60421
2021-05-25 11:41:35.864010,-52.91624
2021-05-25 11:41:35.879630,-35.51051
2021-05-25 11:41:35.895260,-17.8008
2021-05-25 11:41:35.910890,-2.241653
2021-05-25 11:41:35.926510,9.646484
2021-05-25 11:41:35.942140,17.67958
2021-05-25 11:41:35.957760,22.68652
2021-05-25 11:41:35.973390,25.5605
2021-05-25 11:41:35.989010,26.47099
2021-05-25 11:41:36.004640,24.85864
2021-05-25 11:41:36.020270,20.40097
2021-05-25 11:41:36.035890,14.24135
2021-05-25 11:41:36.051520,9.420486
2021-05-25 11:41:36.067140,9.822052
2021-05-25 11:41:36.082770,17.98831
2021-05-25 11:41:36.098390,33.13046
2021-05-25 11:41:36.114020,50.70227
2021-05-25 11:41:36.129650,64.147
2021-05-25 11:41:36.145270,67.88007
2021-05-25 11:41:36.160900,59.96756
2021-05-25 11:41:36.176520,42.9342
2021-05-25 11:41:36.192150,22.36057
2021-05-25 11:41:36.207770,4.097473
2021-05-25 11:41:36.223400,-8.224304
2021-05-25 11:41:36.239030,-14.16617
2021-05-25 11:41:36.254650,-15.74347
2021-05-25 11:41:36.270280,-15.70477
2021-05-25 11:41:36.285900,-15.97568
2021-05-25 11:41:36.301530,-17.06302
2021-05-25 11:41:36.317150,-18.42453
2021-05-25 11:41:36.332780,-19.30151
2021-05-25 11:41:36.348410,-19.33466
2021-05-25 11:41:36.364030,-18.77087
2021-05-25 11:41:36.379660,-18.20914
2021-05-25 11:41:36.395280,-18.21909
2021-05-25 11:41:36.410910,-18.97418
2021-05-25 11:41:36.426530,-20.07062
2021-05-25 11:41:36.442160,-20.65588
2021-05-25 11:41:36.457790,-19.77136
2021-05-25 11:41:36.473410,-16.7829
2021-05-25 11:41:36.489040,-11.62433
2021-05-25 11:41:36.504660,-4.728821
2021-05-25 11:41:36.520290,3.383545
2021-05-25 11:41:36.535910,12.58282
2021-05-25 11:41:36.551540,23.25946
2021-05-25 11:41:36.567170,35.86255
2021-05-25 11:41:36.582790,50.09576
2021-05-25 11:41:36.598420,64.21539
2021-05-25 11:41:36.614040,75.10693
2021-05-25 11:41:36.629670,79.37482
2021-05-25 11:41:36.645290,75.01501
2021-05-25 11:41:36.660920,62.7691
2021-05-25 11:41:36.676550,46.23547
2021-05-25 11:41:36.692170,30.56537
2021-05-25 11:41:36.707800,20.29297
2021-05-25 11:41:36.723420,17.5202
2021-05-25 11:41:36.739050,21.41516
2021-05-25 11:41:36.754670,29.17657
2021-05-25 11:41:36.770300,37.84808
2021-05-25 11:41:36.785930,45.82617
2021-05-25 11:41:36.801550,53.25775
2021-05-25 11:41:36.817180,61.32092
2021-05-25 11:41:36.832800,70.9118
2021-05-25 11:41:36.848430,81.66107
2021-05-25 11:41:36.864050,91.7179
2021-05-25 11:41:36.879680,98.479
2021-05-25 11:41:36.895310,99.76184
2021-05-25 11:41:36.910930,94.80585
2021-05-25 11:41:36.926560,84.62933
2021-05-25 11:41:36.942180,71.48669
2021-05-25 11:41:36.957810,57.80865
2021-05-25 11:41:36.973430,45.09259
2021-05-25 11:41:36.989060,33.43213
2021-05-25 11:41:37.004690,21.80591
2021-05-25 11:41:37.020310,9.00592
2021-05-25 11:41:37.035940,-5.362183
2021-05-25 11:41:37.051560,-20.38855
2021-05-25 11:41:37.067190,-34.22565
2021-05-25 11:41:37.082810,-45.03369
2021-05-25 11:41:37.098440,-51.94354
2021-05-25 11:41:37.114070,-55.42889
2021-05-25 11:41:37.129690,-56.83533
2021-05-25 11:41:37.145320,-57.33722
2021-05-25 11:41:37.160940,-56.96814
2021-05-25 11:41:37.176570,-54.33899
2021-05-25 11:41:37.192190,-47.39319
2021-05-25 11:41:37.207820,-34.8407
2021-05-25 11:41:37.223450,-17.53455
2021-05-25 11:41:37.239070,1.165771
2021-05-25 11:41:37.254700,16.40436
2021-05-25 11:41:37.270320,23.96118
2021-05-25 11:41:37.285950,22.38147
2021-05-25 11:41:37.301570,13.90179
2021-05-25 11:41:37.317200,3.554932
2021-05-25 11:41:37.332830,-3.168152
2021-05-25 11:41:37.348450,-2.829224
2021-05-25 11:41:37.364080,4.662842
2021-05-25 11:41:37.379700,16.58221
2021-05-25 11:41:37.395330,29.20551
2021-05-25 11:41:37.410950,39.72778
2021-05-25 11:41:37.426580,47.18127
2021-05-25 11:41:37.442210,51.99377
2021-05-25 11:41:37.457830,54.81323
2021-05-25 11:41:37.473460,55.62299
2021-05-25 11:41:37.489080,53.60822
2021-05-25 11:41:37.504710,47.85095
2021-05-25 11:41:37.520330,38.1842
2021-05-25 11:41:37.535960,25.55615
2021-05-25 11:41:37.551590,11.7312
2021-05-25 11:41:37.567210,-1.412781
2021-05-25 11:41:37.582840,-12.59204
2021-05-25 11:41:37.598460,-21.44269
2021-05-25 11:41:37.614090,-28.32953
2021-05-25 11:41:37.629710,-33.91327
2021-05-25 11:41:37.645340,-38.67316
2021-05-25 11:41:37.660970,-42.63104
2021-05-25 11:41:37.676590,-45.31964
2021-05-25 11:41:37.692220,-45.92932
2021-05-25 11:41:37.707840,-43.57355
2021-05-25 11:41:37.723470,-37.52179
2021-05-25 11:41:37.739090,-27.4353
2021-05-25 11:41:37.754720,-13.60962
2021-05-25 11:41:37.770350,2.970642
2021-05-25 11:41:37.785970,20.75555
2021-05-25 11:41:37.801600,37.9632
2021-05-25 11:41:37.817220,52.97742
2021-05-25 11:41:37.832850,64.68225
2021-05-25 11:41:37.848470,72.5578
2021-05-25 11:41:37.864100,76.59808
2021-05-25 11:41:37.879730,77.16882
2021-05-25 11:41:37.895350,74.92004
2021-05-25 11:41:37.910980,70.70209
2021-05-25 11:41:37.926600,65.49426
2021-05-25 11:41:37.942230,60.2619
2021-05-25 11:41:37.957850,55.72644
2021-05-25 11:41:37.973480,52.23608
2021-05-25 11:41:37.989110,49.69623
2021-05-25 11:41:38.004730,47.65881
2021-05-25 11:41:38.020360,45.38684
2021-05-25 11:41:38.035980,41.91077
2021-05-25 11:41:38.051610,36.07483
2021-05-25 11:41:38.067230,26.8222
2021-05-25 11:41:38.082860,13.67798
2021-05-25 11:41:38.098490,-2.731995
2021-05-25 11:41:38.114110,-20.39929
2021-05-25 11:41:38.129740,-36.30322
2021-05-25 11:41:38.145360,-47.36853
2021-05-25 11:41:38.160990,-51.54474
2021-05-25 11:41:38.176620,-48.6109
2021-05-25 11:41:38.192240,-40.28912
2021-05-25 11:41:38.207870,-29.74591
2021-05-25 11:41:38.223490,-20.52905
2021-05-25 11:41:38.239120,-15.35504
2021-05-25 11:41:38.254740,-15.1178
2021-05-25 11:41:38.270370,-18.59998
2021-05-25 11:41:38.286000,-22.98785
2021-05-25 11:41:38.301620,-25.16705
2021-05-25 11:41:38.317250,-23.10376
2021-05-25 11:41:38.332870,-16.67188
2021-05-25 11:41:38.348500,-7.465332
2021-05-25 11:41:38.364120,2.143188
2021-05-25 11:41:38.379750,10.1062
2021-05-25 11:41:38.395380,15.24438
2021-05-25 11:41:38.411000,16.90076
2021-05-25 11:41:38.426630,14.32043
2021-05-25 11:41:38.442250,6.396973
2021-05-25 11:41:38.457880,-7.752563
2021-05-25 11:41:38.473500,-27.71545
2021-05-25 11:41:38.489130,-51.01465
2021-05-25 11:41:38.504760,-73.42639
2021-05-25 11:41:38.520380,-90.40173
2021-05-25 11:41:38.536010,-98.95007
2021-05-25 11:41:38.551630,-98.78784
2021-05-25 11:41:38.567260,-92.13794
2021-05-25 11:41:38.582880,-82.36108
2021-05-25 11:41:38.598510,-72.271
2021-05-25 11:41:38.614140,-63.05872
2021-05-25 11:41:38.629760,-54.28247
2021-05-25 11:41:38.645390,-44.69385
2021-05-25 11:41:38.661010,-33.34778
2021-05-25 11:41:38.676640,-20.24536
2021-05-25 11:41:38.692260,-6.318604
2021-05-25 11:41:38.707890,7.137451
2021-05-25 11:41:38.723520,19.12048
2021-05-25 11:41:38.739140,29.27844
2021-05-25 11:41:38.754770,37.8075
2021-05-25 11:41:38.770390,45.04358
2021-05-25 11:41:38.786020,51.09656
2021-05-25 11:41:38.801640,55.68579
2021-05-25 11:41:38.817270,58.35034
2021-05-25 11:41:38.832900,58.74976
2021-05-25 11:41:38.848520,56.90601
2021-05-25 11:41:38.864150,53.18604
2021-05-25 11:41:38.879770,48.14697
2021-05-25 11:41:38.895400,42.39966
2021-05-25 11:41:38.911020,36.50305
2021-05-25 11:41:38.926650,30.96033
2021-05-25 11:41:38.942280,26.18542
2021-05-25 11:41:38.957900,22.49426
2021-05-25 11:41:38.973530,20.06396
2021-05-25 11:41:38.989150,18.91785
2021-05-25 11:41:39.004780,18.94177
2021-05-25 11:41:39.020400,19.9043
2021-05-25 11:41:39.036030,21.4397
2021-05-25 11:41:39.051660,23.02942
2021-05-25 11:41:39.067280,24.02551
2021-05-25 11:41:39.082910,23.76367
2021-05-25 11:41:39.098530,21.81226
2021-05-25 11:41:39.114160,18.18188
2021-05-25 11:41:39.129780,13.38684
2021-05-25 11:41:39.145410,8.286621
2021-05-25 11:41:39.161040,3.765381
2021-05-25 11:41:39.176660,0.3985596
2021-05-25 11:41:39.192290,-1.667358
2021-05-25 11:41:39.207910,-2.571533
2021-05-25 11:41:39.223540,-2.502319
2021-05-25 11:41:39.239160,-1.467407
2021-05-25 11:41:39.254790,0.7270508
2021-05-25 11:41:39.270420,4.292725
2021-05-25 11:41:39.286040,9.200562
2021-05-25 11:41:39.301670,15.0957
2021-05-25 11:41:39.317290,21.52661
2021-05-25 11:41:39.332920,28.31335
2021-05-25 11:41:39.348540,35.85486
2021-05-25 11:41:39.364170,45.14307
2021-05-25 11:41:39.379800,57.32483
2021-05-25 11:41:39.395420,73.00989
2021-05-25 11:41:39.411050,91.62317
2021-05-25 11:41:39.426670,111.1769
2021-05-25 11:41:39.442300,128.6093
2021-05-25 11:41:39.457920,140.7561
2021-05-25 11:41:39.473550,145.4553
2021-05-25 11:41:39.489180,142.3988
2021-05-25 11:41:39.504800,133.344
2021-05-25 11:41:39.520430,121.5221
2021-05-25 11:41:39.536050,110.5198
2021-05-25 11:41:39.551680,103.0018
2021-05-25 11:41:39.567300,99.94128
2021-05-25 11:41:39.582930,100.4655
2021-05-25 11:41:39.598560,102.5199
2021-05-25 11:41:39.614180,103.8446
2021-05-25 11:41:39.629810,102.823
2021-05-25 11:41:39.645430,98.84595
2021-05-25 11:41:39.661060,92.15259
2021-05-25 11:41:39.676680,83.4519
2021-05-25 11:41:39.692310,73.80798
2021-05-25 11:41:39.707940,64.7666
2021-05-25 11:41:39.723560,58.42786
2021-05-25 11:41:39.739190,57.00464
2021-05-25 11:41:39.754810,61.927
2021-05-25 11:41:39.770440,72.82776
2021-05-25 11:41:39.786060,87.12634
2021-05-25 11:41:39.801690,100.6022
2021-05-25 11:41:39.817320,108.8861
2021-05-25 11:41:39.832940,109.0729
2021-05-25 11:41:39.848570,100.5737
2021-05-25 11:41:39.864190,84.88129
2021-05-25 11:41:39.879820,64.38269
2021-05-25 11:41:39.895440,41.17896
2021-05-25 11:41:39.911070,16.51282
2021-05-25 11:41:39.926700,-8.882385
2021-05-25 11:41:39.942320,-34.17413
2021-05-25 11:41:39.957950,-58.01636
2021-05-25 11:41:39.973570,-78.71289
2021-05-25 11:41:39.989200,-94.88037
2021-05-25 11:41:40.004820,-106.0705
2021-05-25 11:41:40.020450,-112.8871
2021-05-25 11:41:40.036080,-116.6309
2021-05-25 11:41:40.051700,-118.8111
2021-05-25 11:41:40.067330,-120.5289
2021-05-25 11:41:40.082950,-122.2519
2021-05-25 11:41:40.098580,-123.8194
2021-05-25 11:41:40.114200,-124.6765
2021-05-25 11:41:40.129830,-124.2264
2021-05-25 11:41:40.145460,-122.1043
2021-05-25 11:41:40.161080,-118.3517
2021-05-25 11:41:40.176710,-113.3547
2021-05-25 11:41:40.192330,-107.6191
2021-05-25 11:41:40.207960,-101.3951
2021-05-25 11:41:40.223580,-94.47778
2021-05-25 11:41:40.239210,-86.3324
2021-05-25 11:41:40.254840,-76.50995
2021-05-25 11:41:40.270460,-65.08978
2021-05-25 11:41:40.286090,-52.81024
2021-05-25 11:41:40.301710,-40.79962
2021-05-25 11:41:40.317340,-29.98193
2021-05-25 11:41:40.332960,-20.58228
2021-05-25 11:41:40.348590,-11.97815
2021-05-25 11:41:40.364220,-3.078552
2021-05-25 11:41:40.379840,7.07666
2021-05-25 11:41:40.395470,18.81769
2021-05-25 11:41:40.411090,31.65112
2021-05-25 11:41:40.426720,44.51855
2021-05-25 11:41:40.442350,56.224
2021-05-25 11:41:40.457970,65.77008
2021-05-25 11:41:40.473600,72.5918
2021-05-25 11:41:40.489220,76.6059
2021-05-25 11:41:40.504850,78.01855
2021-05-25 11:41:40.520470,77.25671
2021-05-25 11:41:40.536100,74.84906
2021-05-25 11:41:40.551730,71.25696
2021-05-25 11:41:40.567350,66.73828
2021-05-25 11:41:40.582980,61.32941
2021-05-25 11:41:40.598600,54.90387
2021-05-25 11:41:40.614230,47.35144
2021-05-25 11:41:40.629850,38.74188
2021-05-25 11:41:40.645480,29.39581
2021-05-25 11:41:40.661110,19.82751
2021-05-25 11:41:40.676730,10.63977
2021-05-25 11:41:40.692360,2.368713
2021-05-25 11:41:40.707980,-4.609802
2021-05-25 11:41:40.723610,-10.10236
2021-05-25 11:41:40.739230,-14.10303
2021-05-25 11:41:40.754860,-16.78925
2021-05-25 11:41:40.770490,-18.48163
2021-05-25 11:41:40.786110,-19.59955
2021-05-25 11:41:40.801740,-20.57758
2021-05-25 11:41:40.817360,-21.79605
2021-05-25 11:41:40.832990,-23.5712
2021-05-25 11:41:40.848610,-26.11191
2021-05-25 11:41:40.864240,-29.45749
2021-05-25 11:41:40.879870,-33.38715
2021-05-25 11:41:40.895490,-37.34534
2021-05-25 11:41:40.911120,-40.43854
2021-05-25 11:41:40.926740,-41.6424
2021-05-25 11:41:40.957990,-35.61554
2021-05-25 11:41:40.973620,-28.56543
2021-05-25 11:41:40.989250,-20.08334
2021-05-25 11:41:41.004870,-11.52551
2021-05-25 11:41:41.020500,-4.012909
2021-05-25 11:41:41.036120,1.927856
2021-05-25 11:41:41.051750,6.459198
2021-05-25 11:41:41.067370,10.21353
2021-05-25 11:41:41.083000,13.89499
2021-05-25 11:41:41.098630,17.98831
2021-05-25 11:41:41.114250,22.59921
2021-05-25 11:41:41.129880,27.48666
2021-05-25 11:41:41.145500,32.18195
2021-05-25 11:41:41.161130,36.1557
2021-05-25 11:41:41.176750,38.88519
2021-05-25 11:41:41.192380,39.95636
2021-05-25 11:41:41.208010,39.10233
2021-05-25 11:41:41.223630,36.28516
2021-05-25 11:41:41.239260,31.78577
2021-05-25 11:41:41.254880,26.20084
2021-05-25 11:41:41.270510,20.30795
2021-05-25 11:41:41.286130,14.82202
2021-05-25 11:41:41.301760,10.12408
2021-05-25 11:41:41.317390,6.110794
2021-05-25 11:41:41.333010,2.282776
2021-05-25 11:41:41.348640,-2.02977
2021-05-25 11:41:41.364260,-7.33786
2021-05-25 11:41:41.379890,-13.73709
2021-05-25 11:41:41.395510,-20.87584
2021-05-25 11:41:41.411140,-28.08473
2021-05-25 11:41:41.426770,-34.63368
2021-05-25 11:41:41.442390,-39.98273
2021-05-25 11:41:41.458020,-43.95833
2021-05-25 11:41:41.473640,-46.72026
2021-05-25 11:41:41.489270,-48.69627
2021-05-25 11:41:41.504890,-50.40508
2021-05-25 11:41:41.520520,-52.32347
2021-05-25 11:41:41.536150,-54.74333
2021-05-25 11:41:41.551770,-57.69585
2021-05-25 11:41:41.567400,-60.89329
2021-05-25 11:41:41.583020,-63.80512
2021-05-25 11:41:41.598650,-65.81093
2021-05-25 11:41:41.614270,-66.4071
2021-05-25 11:41:41.629900,-65.36945
2021-05-25 11:41:41.645530,-62.84668
2021-05-25 11:41:41.661150,-59.25828
2021-05-25 11:41:41.676780,-55.12771
2021-05-25 11:41:41.692400,-50.90124
2021-05-25 11:41:41.708030,-46.84631
2021-05-25 11:41:41.723650,-43.04624
2021-05-25 11:41:41.739280,-39.45805
2021-05-25 11:41:41.754910,-35.97836
2021-05-25 11:41:41.770530,-32.50104
2021-05-25 11:41:41.786160,-28.9492
2021-05-25 11:41:41.801780,-25.311
2021-05-25 11:41:41.817410,-21.6632
2021-05-25 11:41:41.833030,-18.15714
2021-05-25 11:41:41.848660,-14.9901
2021-05-25 11:41:41.864290,-12.25061
2021-05-25 11:41:41.879910,-9.842007
2021-05-25 11:41:41.895540,-7.453539
2021-05-25 11:41:41.911160,-4.670678
2021-05-25 11:41:41.926790,-1.192531
2021-05-25 11:41:41.942410,2.941937
2021-05-25 11:41:41.958040,7.245518
2021-05-25 11:41:41.973670,10.91891
2021-05-25 11:41:41.989290,13.15388
2021-05-25 11:41:42.004920,13.46674
2021-05-25 11:41:42.020540,11.87272
2021-05-25 11:41:42.036170,8.785576
2021-05-25 11:41:42.051790,4.684843
2021-05-25 11:41:42.067420,-0.1864471
2021-05-25 11:41:42.083050,-5.795395
2021-05-25 11:41:42.098670,-11.98345
2021-05-25 11:41:42.114300,-18.06851
2021-05-25 11:41:42.129920,-22.79039
2021-05-25 11:41:42.145550,-24.75166
2021-05-25 11:41:42.161170,-23.24246
2021-05-25 11:41:42.176800,-18.8049
2021-05-25 11:41:42.192430,-13.20024
2021-05-25 11:41:42.208050,-8.605976
2021-05-25 11:41:42.223680,-6.522499
2021-05-25 11:41:42.239300,-7.097519
2021-05-25 11:41:42.254930,-9.209778
2021-05-25 11:41:42.270550,-11.28879
2021-05-25 11:41:42.286180,-12.24376
2021-05-25 11:41:42.301810,-11.95746
2021-05-25 11:41:42.317430,-11.04126
2021-05-25 11:41:42.333060,-10.16431
2021-05-25 11:41:42.348680,-9.52993
2021-05-25 11:41:42.364310,-8.77652
2021-05-25 11:41:42.379930,-7.37326
2021-05-25 11:41:42.395560,-5.16481
2021-05-25 11:41:42.411190,-2.559219
2021-05-25 11:41:42.426810,-0.3369827
2021-05-25 11:41:42.442440,0.8216476
2021-05-25 11:41:42.458060,0.7079773
2021-05-25 11:41:42.473690,-0.3333664
2021-05-25 11:41:42.489310,-1.579781
2021-05-25 11:41:42.504940,-2.321098
2021-05-25 11:41:42.520570,-2.095497
2021-05-25 11:41:42.536190,-0.8158264
2021-05-25 11:41:42.551820,1.338188
2021-05-25 11:41:42.567440,4.07029
2021-05-25 11:41:42.583070,7.154274
2021-05-25 11:41:42.598700,10.51761
2021-05-25 11:41:42.614320,14.15198
2021-05-25 11:41:42.629950,17.97607
2021-05-25 11:41:42.645570,21.67276
2021-05-25 11:41:42.661200,24.68451
2021-05-25 11:41:42.676820,26.37617
2021-05-25 11:41:42.692450,26.34056
2021-05-25 11:41:42.708080,24.61996
2021-05-25 11:41:42.723700,21.79675
2021-05-25 11:41:42.739330,18.81468
2021-05-25 11:41:42.754950,16.60484
2021-05-25 11:41:42.770580,15.73027
2021-05-25 11:41:42.786200,16.20247
2021-05-25 11:41:42.801830,17.59344
2021-05-25 11:41:42.817460,19.33447
2021-05-25 11:41:42.833080,21.07069
2021-05-25 11:41:42.848710,22.82866
2021-05-25 11:41:42.864330,24.95686
2021-05-25 11:41:42.879960,27.90254
2021-05-25 11:41:42.895580,31.9176
2021-05-25 11:41:42.911210,36.936
2021-05-25 11:41:42.926840,42.60104
2021-05-25 11:41:42.942460,48.49983
2021-05-25 11:41:42.958090,54.34166
2021-05-25 11:41:42.973710,59.98848
2021-05-25 11:41:42.989340,65.27341
2021-05-25 11:41:43.004960,69.79399
2021-05-25 11:41:43.020590,72.87006
2021-05-25 11:41:43.036220,73.74925
2021-05-25 11:41:43.051840,71.99939
2021-05-25 11:41:43.067470,67.74167
2021-05-25 11:41:43.083090,61.70135
2021-05-25 11:41:43.098720,54.84592
2021-05-25 11:41:43.114340,47.9021
2021-05-25 11:41:43.129970,41.01849
2021-05-25 11:41:43.145600,33.76196
2021-05-25 11:41:43.161220,25.49377
2021-05-25 11:41:43.176850,15.82489
2021-05-25 11:41:43.192470,4.988953
2021-05-25 11:41:43.208100,-6.244812
2021-05-25 11:41:43.223720,-16.85883
2021-05-25 11:41:43.239350,-26.01526
2021-05-25 11:41:43.254980,-33.23923
2021-05-25 11:41:43.270600,-38.40012
2021-05-25 11:41:43.286230,-41.5368
2021-05-25 11:41:43.301850,-42.72394
2021-05-25 11:41:43.317480,-42.10242
2021-05-25 11:41:43.333100,-39.95459
2021-05-25 11:41:43.348730,-36.77863
2021-05-25 11:41:43.364360,-33.19498
2021-05-25 11:41:43.379980,-29.71439
2021-05-25 11:41:43.395610,-26.4726
2021-05-25 11:41:43.411230,-23.13898
2021-05-25 11:41:43.426860,-19.08749
2021-05-25 11:41:43.442480,-13.80524
2021-05-25 11:41:43.458110,-7.355438
2021-05-25 11:41:43.473740,-0.6363831
2021-05-25 11:41:43.489360,4.741852
2021-05-25 11:41:43.504990,6.980011
2021-05-25 11:41:43.520610,4.82196
2021-05-25 11:41:43.536240,-1.866669
2021-05-25 11:41:43.551860,-11.92416
2021-05-25 11:41:43.567490,-23.29318
2021-05-25 11:41:43.583120,-33.71194
2021-05-25 11:41:43.598740,-41.49496
2021-05-25 11:41:43.614370,-45.95227
2021-05-25 11:41:43.629990,-47.3924
2021-05-25 11:41:43.645620,-46.73914
2021-05-25 11:41:43.661240,-45.03607
2021-05-25 11:41:43.676870,-43.13873
2021-05-25 11:41:43.692500,-41.63898
2021-05-25 11:41:43.708120,-40.94177
2021-05-25 11:41:43.723750,-41.30023
2021-05-25 11:41:43.739370,-42.7926
2021-05-25 11:41:43.755000,-45.17249
2021-05-25 11:41:43.770620,-47.86389
2021-05-25 11:41:43.786250,-50.09729
2021-05-25 11:41:43.801880,-51.22339
2021-05-25 11:41:43.817500,-50.97595
2021-05-25 11:41:43.833130,-49.54779
2021-05-25 11:41:43.848750,-47.48688
2021-05-25 11:41:43.864380,-45.4425
2021-05-25 11:41:43.880000,-43.94672
2021-05-25 11:41:43.895630,-43.216
2021-05-25 11:41:43.911260,-43.12476
2021-05-25 11:41:43.926880,-43.25537
2021-05-25 11:41:43.942510,-43.03784
2021-05-25 11:41:43.958130,-41.94897
2021-05-25 11:41:43.973760,-39.70367
2021-05-25 11:41:43.989380,-36.4151
2021-05-25 11:41:44.005010,-32.55475
2021-05-25 11:41:44.020640,-28.83759
2021-05-25 11:41:44.036260,-25.94037
2021-05-25 11:41:44.051890,-24.27814
2021-05-25 11:41:44.067510,-23.87708
2021-05-25 11:41:44.083140,-24.43341
2021-05-25 11:41:44.098760,-25.45074
2021-05-25 11:41:44.114390,-26.29968
2021-05-25 11:41:44.130020,-26.30817
2021-05-25 11:41:44.145640,-24.91016
2021-05-25 11:41:44.161270,-21.88489
2021-05-25 11:41:44.176890,-17.51605
2021-05-25 11:41:44.192520,-12.60547
2021-05-25 11:41:44.208140,-8.135437
2021-05-25 11:41:44.223770,-4.77655
2021-05-25 11:41:44.239400,-2.523315
2021-05-25 11:41:44.255020,-0.6922607
2021-05-25 11:41:44.270650,1.582214
2021-05-25 11:41:44.286270,4.739868
2021-05-25 11:41:44.301900,8.406006
2021-05-25 11:41:44.317520,11.5741
2021-05-25 11:41:44.333150,13.18396
2021-05-25 11:41:44.348780,12.75323
2021-05-25 11:41:44.364400,10.64081
2021-05-25 11:41:44.380030,7.755249
2021-05-25 11:41:44.395650,4.994446
2021-05-25 11:41:44.411280,2.789795
2021-05-25 11:41:44.426900,1.008972
2021-05-25 11:41:44.442530,-0.7487183
2021-05-25 11:41:44.458160,-2.740601
2021-05-25 11:41:44.473780,-4.903748
2021-05-25 11:41:44.489410,-6.973755
2021-05-25 11:41:44.505030,-8.633118
2021-05-25 11:41:44.520660,-9.709778
2021-05-25 11:41:44.536280,-10.17206
2021-05-25 11:41:44.551910,-10.03308
2021-05-25 11:41:44.567540,-9.221924
2021-05-25 11:41:44.583160,-7.579712
2021-05-25 11:41:44.598790,-5.00177
2021-05-25 11:41:44.614410,-1.585571
2021-05-25 11:41:44.630040,2.321838
2021-05-25 11:41:44.645660,6.218628
2021-05-25 11:41:44.661290,9.61676
2021-05-25 11:41:44.676920,12.24921
2021-05-25 11:41:44.692540,14.16138
2021-05-25 11:41:44.708170,15.61743
2021-05-25 11:41:44.723790,16.94073
2021-05-25 11:41:44.739420,18.36664
2021-05-25 11:41:44.755040,19.97906
2021-05-25 11:41:44.770670,21.71033
2021-05-25 11:41:44.786300,23.40845
2021-05-25 11:41:44.801920,24.88593
2021-05-25 11:41:44.817550,25.92664
2021-05-25 11:41:44.833170,26.30774
2021-05-25 11:41:44.848800,25.88702
2021-05-25 11:41:44.864420,24.65631
2021-05-25 11:41:44.880050,22.83978
2021-05-25 11:41:44.895680,20.79816
2021-05-25 11:41:44.911300,18.86938
2021-05-25 11:41:44.926930,17.11041
2021-05-25 11:41:44.942550,15.14514
2021-05-25 11:41:44.958180,12.2691
2021-05-25 11:41:44.973800,7.792725
2021-05-25 11:41:44.989430,1.479797
2021-05-25 11:41:45.005060,-6.141907
2021-05-25 11:41:45.020680,-13.81537
2021-05-25 11:41:45.036310,-19.99347
2021-05-25 11:41:45.051930,-23.45746
2021-05-25 11:41:45.067560,-23.84821
2021-05-25 11:41:45.083180,-21.84344
2021-05-25 11:41:45.098810,-18.8161
2021-05-25 11:41:45.114440,-16.25604
2021-05-25 11:41:45.130060,-15.09583
2021-05-25 11:41:45.145690,-15.33533
2021-05-25 11:41:45.161310,-16.15485
2021-05-25 11:41:45.176940,-16.36816
2021-05-25 11:41:45.192560,-14.97815
2021-05-25 11:41:45.208190,-11.58704
2021-05-25 11:41:45.223820,-6.472412
2021-05-25 11:41:45.239440,-0.4100342
2021-05-25 11:41:45.255070,5.700745
2021-05-25 11:41:45.270690,11.12354
2021-05-25 11:41:45.286320,15.41876
2021-05-25 11:41:45.301950,18.4339
2021-05-25 11:41:45.317570,20.17914
2021-05-25 11:41:45.333200,20.784
2021-05-25 11:41:45.348820,20.44238
2021-05-25 11:41:45.364450,19.44312
2021-05-25 11:41:45.380070,18.16974
2021-05-25 11:41:45.395700,16.93835
2021-05-25 11:41:45.411330,15.84247
2021-05-25 11:41:45.426950,14.64185
2021-05-25 11:41:45.442580,12.8111
2021-05-25 11:41:45.458200,9.767395
2021-05-25 11:41:45.473830,5.274353
2021-05-25 11:41:45.489450,-0.2808838
2021-05-25 11:41:45.505080,-5.833923
2021-05-25 11:41:45.520710,-10.02899
2021-05-25 11:41:45.536330,-11.87262
2021-05-25 11:41:45.551960,-11.35638
2021-05-25 11:41:45.567580,-9.591187
2021-05-25 11:41:45.583210,-8.363831
2021-05-25 11:41:45.598830,-9.255615
2021-05-25 11:41:45.614460,-12.91022
2021-05-25 11:41:45.630090,-18.78943
2021-05-25 11:41:45.645710,-25.57227
2021-05-25 11:41:45.661340,-31.88715
2021-05-25 11:41:45.676960,-36.97192
2021-05-25 11:41:45.692590,-40.82001
2021-05-25 11:41:45.708210,-43.92834
2021-05-25 11:41:45.723840,-46.72748
2021-05-25 11:41:45.739470,-49.29108
2021-05-25 11:41:45.755090,-51.30981
2021-05-25 11:41:45.770720,-52.3678
2021-05-25 11:41:45.786340,-52.19861
2021-05-25 11:41:45.801970,-50.7243
2021-05-25 11:41:45.817590,-47.97095
2021-05-25 11:41:45.833220,-43.88654
2021-05-25 11:41:45.848850,-38.43567
2021-05-25 11:41:45.864470,-31.71387
2021-05-25 11:41:45.880100,-24.06238
2021-05-25 11:41:45.895720,-16.01501
2021-05-25 11:41:45.911350,-8.116028
2021-05-25 11:41:45.926970,-0.7342529
2021-05-25 11:41:45.942600,5.958557
2021-05-25 11:41:45.958230,11.86182
2021-05-25 11:41:45.973850,16.82971
2021-05-25 11:41:45.989480,20.61072
2021-05-25 11:41:46.005100,22.97363
2021-05-25 11:41:46.020730,23.92865
2021-05-25 11:41:46.036350,23.88818
2021-05-25 11:41:46.051980,23.57642
2021-05-25 11:41:46.067610,23.73553
2021-05-25 11:41:46.083230,24.74976
2021-05-25 11:41:46.098860,26.45551
2021-05-25 11:41:46.114480,28.21387
2021-05-25 11:41:46.130110,29.26819
2021-05-25 11:41:46.145730,29.13721
2021-05-25 11:41:46.161360,27.86749
2021-05-25 11:41:46.176990,25.94995
2021-05-25 11:41:46.192610,24.04083
2021-05-25 11:41:46.208240,22.59491
2021-05-25 11:41:46.223860,21.67401
2021-05-25 11:41:46.239490,20.95343
2021-05-25 11:41:46.255110,19.95355
2021-05-25 11:41:46.270740,18.29761
2021-05-25 11:41:46.286370,15.89355
2021-05-25 11:41:46.301990,12.95667
2021-05-25 11:41:46.317620,9.881836
2021-05-25 11:41:46.333240,7.062988
2021-05-25 11:41:46.348870,4.787415
2021-05-25 11:41:46.364490,3.144287
2021-05-25 11:41:46.380120,2.03241
2021-05-25 11:41:46.395750,1.173523
2021-05-25 11:41:46.411370,0.1799927
2021-05-25 11:41:46.427000,-1.310913
2021-05-25 11:41:46.442620,-3.516418
2021-05-25 11:41:46.458250,-6.391785
2021-05-25 11:41:46.473870,-9.646179
2021-05-25 11:41:46.489500,-12.77954
2021-05-25 11:41:46.505130,-15.24011
2021-05-25 11:41:46.520750,-16.58264
2021-05-25 11:41:46.536380,-16.53064
2021-05-25 11:41:46.552000,-15.02881
2021-05-25 11:41:46.567630,-12.18842
2021-05-25 11:41:46.583250,-8.24176
2021-05-25 11:41:46.598880,-3.478394
2021-05-25 11:41:46.614510,1.762024
2021-05-25 11:41:46.630130,7.120422
2021-05-25 11:41:46.645760,12.2041
2021-05-25 11:41:46.661380,16.56964
2021-05-25 11:41:46.677010,19.77454
2021-05-25 11:41:46.692630,21.42761
2021-05-25 11:41:46.708260,21.28949
2021-05-25 11:41:46.723890,19.37402
2021-05-25 11:41:46.739510,16.0481
2021-05-25 11:41:46.755140,11.93213
2021-05-25 11:41:46.770760,7.748413
2021-05-25 11:41:46.786390,4.071228
2021-05-25 11:41:46.802010,1.093689
2021-05-25 11:41:46.817640,-1.430237
2021-05-25 11:41:46.833270,-4.077271
2021-05-25 11:41:46.848890,-7.468506
2021-05-25 11:41:46.864520,-11.98688
2021-05-25 11:41:46.880140,-17.54016
2021-05-25 11:41:46.895770,-23.63403
2021-05-25 11:41:46.911390,-29.60504
2021-05-25 11:41:46.927020,-34.92828
2021-05-25 11:41:46.942650,-39.44116
2021-05-25 11:41:46.958270,-43.26526
2021-05-25 11:41:46.973900,-46.59375
2021-05-25 11:41:46.989520,-49.3819
2021-05-25 11:41:47.005150,-51.2572
2021-05-25 11:41:47.020770,-51.66016
2021-05-25 11:41:47.036400,-50.17041
2021-05-25 11:41:47.052030,-46.82214
2021-05-25 11:41:47.067650,-42.18079
2021-05-25 11:41:47.083280,-37.2066
2021-05-25 11:41:47.098900,-32.86353
2021-05-25 11:41:47.114530,-29.83392
2021-05-25 11:41:47.130150,-28.32507
2021-05-25 11:41:47.145780,-28.13434
2021-05-25 11:41:47.161410,-28.79126
2021-05-25 11:41:47.177030,-29.81549
2021-05-25 11:41:47.192660,-30.85614
2021-05-25 11:41:47.208280,-31.78827
2021-05-25 11:41:47.223910,-32.63379
2021-05-25 11:41:47.239530,-33.37262
2021-05-25 11:41:47.255160,-33.84045
2021-05-25 11:41:47.270790,-33.63446
2021-05-25 11:41:47.286410,-32.21686
2021-05-25 11:41:47.302040,-29.10614
2021-05-25 11:41:47.317660,-24.14264
2021-05-25 11:41:47.333290,-17.58276
2021-05-25 11:41:47.348910,-10.01282
2021-05-25 11:41:47.364540,-2.134827
2021-05-25 11:41:47.380170,5.585754
2021-05-25 11:41:47.395790,13.01282
2021-05-25 11:41:47.411420,20.22565
2021-05-25 11:41:47.427040,27.23676
2021-05-25 11:41:47.442670,33.75928
2021-05-25 11:41:47.458300,39.12738
2021-05-25 11:41:47.473920,42.58954
2021-05-25 11:41:47.489550,43.67529
2021-05-25 11:41:47.505170,42.49792
2021-05-25 11:41:47.520800,39.75018
2021-05-25 11:41:47.536420,36.37708
2021-05-25 11:41:47.552050,33.12921
2021-05-25 11:41:47.567680,30.21985
2021-05-25 11:41:47.583300,27.34271
2021-05-25 11:41:47.598930,23.96637
2021-05-25 11:41:47.614550,19.7934
2021-05-25 11:41:47.630180,15.02338
2021-05-25 11:41:47.645800,10.27814
2021-05-25 11:41:47.661430,6.33905
2021-05-25 11:41:47.677060,3.749939
2021-05-25 11:41:47.692680,2.665161
2021-05-25 11:41:47.708310,2.819275
2021-05-25 11:41:47.723930,3.78125
2021-05-25 11:41:47.739560,5.112427
2021-05-25 11:41:47.755180,6.504578
2021-05-25 11:41:47.770810,7.770813
2021-05-25 11:41:47.786440,8.787903
2021-05-25 11:41:47.802060,9.470154
2021-05-25 11:41:47.817690,9.790894
2021-05-25 11:41:47.833310,9.851501
2021-05-25 11:41:47.848940,9.915527
2021-05-25 11:41:47.864560,10.3468
2021-05-25 11:41:47.880190,11.50464
2021-05-25 11:41:47.895820,13.62164
2021-05-25 11:41:47.911440,16.66162
2021-05-25 11:41:47.927070,20.24542
2021-05-25 11:41:47.942690,23.69666
2021-05-25 11:41:47.958320,26.20447
2021-05-25 11:41:47.973940,27.12366
2021-05-25 11:41:47.989570,26.25354
2021-05-25 11:41:48.005200,23.96149
2021-05-25 11:41:48.020820,21.04498
2021-05-25 11:41:48.036450,18.40369
2021-05-25 11:41:48.052070,16.71246
2021-05-25 11:41:48.067700,16.16278
2021-05-25 11:41:48.083320,16.53943
2021-05-25 11:41:48.098950,17.42493
2021-05-25 11:41:48.114580,18.45801
2021-05-25 11:41:48.130200,19.4563
2021-05-25 11:41:48.145830,20.47241
2021-05-25 11:41:48.161450,21.63226
2021-05-25 11:41:48.177080,23.00244
2021-05-25 11:41:48.192700,24.41168
2021-05-25 11:41:48.208330,25.24091
2021-05-25 11:41:48.223960,24.50311
2021-05-25 11:41:48.239580,21.01636
2021-05-25 11:41:48.255210,13.96716
2021-05-25 11:41:48.270830,3.422302
2021-05-25 11:41:48.286460,-9.337708
2021-05-25 11:41:48.302080,-22.09717
2021-05-25 11:41:48.317710,-32.44727
2021-05-25 11:41:48.333340,-38.70575
2021-05-25 11:41:48.348960,-40.49713
2021-05-25 11:41:48.364590,-38.64343
2021-05-25 11:41:48.380210,-34.61652
2021-05-25 11:41:48.395840,-29.83472
2021-05-25 11:41:48.411460,-25.34955
2021-05-25 11:41:48.427090,-21.80609
2021-05-25 11:41:48.442720,-19.70892
2021-05-25 11:41:48.458340,-19.41382
2021-05-25 11:41:48.473970,-20.97345
2021-05-25 11:41:48.489590,-23.84869
2021-05-25 11:41:48.505220,-26.85107
2021-05-25 11:41:48.520840,-28.51917
2021-05-25 11:41:48.536470,-27.74231
2021-05-25 11:41:48.552100,-24.30383
2021-05-25 11:41:48.567720,-19.03094
2021-05-25 11:41:48.583350,-13.3866
2021-05-25 11:41:48.598970,-8.800293
2021-05-25 11:41:48.614600,-6.142456
2021-05-25 11:41:48.630220,-5.511658
2021-05-25 11:41:48.645850,-6.475281
2021-05-25 11:41:48.661480,-8.485535
2021-05-25 11:41:48.677100,-11.1601
2021-05-25 11:41:48.692730,-14.34979
2021-05-25 11:41:48.708350,-17.93848
2021-05-25 11:41:48.723980,-21.60272
2021-05-25 11:41:48.739600,-24.74988
2021-05-25 11:41:48.755230,-26.73639
2021-05-25 11:41:48.770860,-27.17279
2021-05-25 11:41:48.786480,-26.19574
2021-05-25 11:41:48.802110,-24.47528
2021-05-25 11:41:48.817730,-22.83429
2021-05-25 11:41:48.833360,-21.82861
2021-05-25 11:41:48.848980,-21.50397
2021-05-25 11:41:48.864610,-21.48029
2021-05-25 11:41:48.880240,-21.35693
2021-05-25 11:41:48.895860,-21.11841
2021-05-25 11:41:48.911490,-21.19952
2021-05-25 11:41:48.927110,-22.26025
2021-05-25 11:41:48.942740,-24.75104
2021-05-25 11:41:48.958360,-28.49841
2021-05-25 11:41:48.973990,-32.7464
2021-05-25 11:41:48.989620,-36.45306
2021-05-25 11:41:49.005240,-38.77484
2021-05-25 11:41:49.020870,-39.43762
2021-05-25 11:41:49.036490,-38.79431
2021-05-25 11:41:49.052120,-37.53052
2021-05-25 11:41:49.067740,-36.32886
2021-05-25 11:41:49.083370,-35.56396
2021-05-25 11:41:49.099000,-35.07156
2021-05-25 11:41:49.114620,-34.27658
2021-05-25 11:41:49.130250,-32.34003
2021-05-25 11:41:49.145870,-28.51224
2021-05-25 11:41:49.161500,-22.44202
2021-05-25 11:41:49.177120,-14.37418
2021-05-25 11:41:49.192750,-5.146698
2021-05-25 11:41:49.208380,4.018494
2021-05-25 11:41:49.224000,11.86908
2021-05-25 11:41:49.239630,17.5441
2021-05-25 11:41:49.255250,20.81863
2021-05-25 11:41:49.270880,22.17444
2021-05-25 11:41:49.286500,22.60345
2021-05-25 11:41:49.302130,23.21716
2021-05-25 11:41:49.317760,24.84729
2021-05-25 11:41:49.333380,27.8269
2021-05-25 11:41:49.349010,31.93027
2021-05-25 11:41:49.364630,36.52811
2021-05-25 11:41:49.380260,40.89926
2021-05-25 11:41:49.395880,44.48633
2021-05-25 11:41:49.411510,47.09424
2021-05-25 11:41:49.427140,48.83774
2021-05-25 11:41:49.442760,49.96228
2021-05-25 11:41:49.458390,50.57559
2021-05-25 11:41:49.474010,50.5029
2021-05-25 11:41:49.489640,49.34921
2021-05-25 11:41:49.505260,46.81305
2021-05-25 11:41:49.520890,42.96756
2021-05-25 11:41:49.536520,38.32526
2021-05-25 11:41:49.552140,33.67419
2021-05-25 11:41:49.567770,29.71692
2021-05-25 11:41:49.583390,26.70477
2021-05-25 11:41:49.599020,24.39832
2021-05-25 11:41:49.614640,22.2395
2021-05-25 11:41:49.630270,19.76865
2021-05-25 11:41:49.645900,16.92587
2021-05-25 11:41:49.661520,14.08881
2021-05-25 11:41:49.677150,11.75775
2021-05-25 11:41:49.692770,10.14911
2021-05-25 11:41:49.708400,8.949249
2021-05-25 11:41:49.724030,7.437836
2021-05-25 11:41:49.739650,4.915619
2021-05-25 11:41:49.755280,1.122955
2021-05-25 11:41:49.770900,-3.578247
2021-05-25 11:41:49.786530,-8.403625
2021-05-25 11:41:49.802150,-12.52115
2021-05-25 11:41:49.817780,-15.39929
2021-05-25 11:41:49.833410,-16.90811
2021-05-25 11:41:49.849030,-17.14627
2021-05-25 11:41:49.864660,-16.3136
2021-05-25 11:41:49.880280,-14.61893
2021-05-25 11:41:49.895910,-12.43497
2021-05-25 11:41:49.911530,-10.40176
2021-05-25 11:41:49.927160,-9.41806
2021-05-25 11:41:49.942790,-10.30112
2021-05-25 11:41:49.958410,-13.33154
2021-05-25 11:41:49.974040,-17.99997
2021-05-25 11:41:49.989660,-23.11563
2021-05-25 11:41:50.005290,-27.34268
2021-05-25 11:41:50.020910,-29.76105
2021-05-25 11:41:50.036540,-30.2547
2021-05-25 11:41:50.052170,-29.41293
2021-05-25 11:41:50.067790,-28.05914
2021-05-25 11:41:50.083420,-26.76367
2021-05-25 11:41:50.099040,-25.52377
2021-05-25 11:41:50.114670,-23.84793
2021-05-25 11:41:50.130290,-21.0069
2021-05-25 11:41:50.145920,-16.34686
2021-05-25 11:41:50.161550,-9.662842
2021-05-25 11:41:50.177170,-1.456604
2021-05-25 11:41:50.192800,7.031281
2021-05-25 11:41:50.208420,14.1564
2021-05-25 11:41:50.224050,18.47179
2021-05-25 11:41:50.239670,19.4257
2021-05-25 11:41:50.255300,17.71027
2021-05-25 11:41:50.270930,14.97644
2021-05-25 11:41:50.286550,13.06854
2021-05-25 11:41:50.302180,13.1031
2021-05-25 11:41:50.317800,14.97861
2021-05-25 11:41:50.333430,17.66861
2021-05-25 11:41:50.349050,20.03941
2021-05-25 11:41:50.364680,21.5872
2021-05-25 11:41:50.380310,22.64413
2021-05-25 11:41:50.395930,23.9382
2021-05-25 11:41:50.411560,25.91447
2021-05-25 11:41:50.427180,28.38052
2021-05-25 11:41:50.442810,30.68121
2021-05-25 11:41:50.458430,32.26199
2021-05-25 11:41:50.474060,32.96002
2021-05-25 11:41:50.489690,32.9093
2021-05-25 11:41:50.505310,32.13014
2021-05-25 11:41:50.520940,30.32541
2021-05-25 11:41:50.536560,27.10323
2021-05-25 11:41:50.552190,22.42055
2021-05-25 11:41:50.567810,16.91791
2021-05-25 11:41:50.583440,11.71518
2021-05-25 11:41:50.599070,7.78746
2021-05-25 11:41:50.614690,5.270172
2021-05-25 11:41:50.630320,3.283401
2021-05-25 11:41:50.645940,0.4209442
2021-05-25 11:41:50.661570,-4.314987
2021-05-25 11:41:50.677190,-10.7309
2021-05-25 11:41:50.692820,-17.22421
2021-05-25 11:41:50.708450,-21.52112
2021-05-25 11:41:50.724070,-21.97887
2021-05-25 11:41:50.739700,-18.7373
2021-05-25 11:41:50.755320,-13.97276
2021-05-25 11:41:50.770950,-11.01186
2021-05-25 11:41:50.786570,-12.63902
2021-05-25 11:41:50.802200,-19.55968
2021-05-25 11:41:50.817830,-29.89168
2021-05-25 11:41:50.833450,-39.998
2021-05-25 11:41:50.849080,-46.29872
2021-05-25 11:41:50.864700,-47.06612
2021-05-25 11:41:50.880330,-43.25366
2021-05-25 11:41:50.895950,-37.90363
2021-05-25 11:41:50.911580,-34.46486
2021-05-25 11:41:50.927210,-34.97163
2021-05-25 11:41:50.942830,-39.13199
2021-05-25 11:41:50.958460,-44.66595
2021-05-25 11:41:50.974080,-48.66984
2021-05-25 11:41:50.989710,-49.13141
2021-05-25 11:41:51.005330,-45.76099
2021-05-25 11:41:51.020960,-39.81406
2021-05-25 11:41:51.036590,-33.21425
2021-05-25 11:41:51.052210,-27.50667
2021-05-25 11:41:51.067840,-23.18026
2021-05-25 11:41:51.083460,-19.6828
2021-05-25 11:41:51.099090,-16.0046
2021-05-25 11:41:51.114710,-11.47149
2021-05-25 11:41:51.130340,-6.245884
2021-05-25 11:41:51.145970,-1.272575
2021-05-25 11:41:51.161590,2.367672
2021-05-25 11:41:51.177220,4.103516
2021-05-25 11:41:51.192840,4.270996
2021-05-25 11:41:51.208470,3.931332
2021-05-25 11:41:51.224090,4.306677
2021-05-25 11:41:51.239720,6.161673
2021-05-25 11:41:51.255350,9.469313
2021-05-25 11:41:51.270970,13.52266
2021-05-25 11:41:51.286600,17.31281
2021-05-25 11:41:51.302220,20.00944
2021-05-25 11:41:51.317850,21.27892
2021-05-25 11:41:51.333470,21.335
2021-05-25 11:41:51.349100,20.72955
2021-05-25 11:41:51.364730,20.08401
2021-05-25 11:41:51.380350,19.8019
2021-05-25 11:41:51.395980,19.9566
2021-05-25 11:41:51.411600,20.32177
2021-05-25 11:41:51.427230,20.52847
2021-05-25 11:41:51.442850,20.2737
2021-05-25 11:41:51.458480,19.44694
2021-05-25 11:41:51.474110,18.14877
2021-05-25 11:41:51.489730,16.62963
2021-05-25 11:41:51.505360,15.11574
2021-05-25 11:41:51.520980,13.71752
2021-05-25 11:41:51.536610,12.36847
2021-05-25 11:41:51.552230,10.85783
2021-05-25 11:41:51.567860,8.963585
2021-05-25 11:41:51.583490,6.570969
2021-05-25 11:41:51.599110,3.705597
2021-05-25 11:41:51.614740,0.5028
2021-05-25 11:41:51.630360,-2.830788
2021-05-25 11:41:51.645990,-6.135361
2021-05-25 11:41:51.661610,-9.380165
2021-05-25 11:41:51.677240,-12.65942
2021-05-25 11:41:51.692870,-16.18465
2021-05-25 11:41:51.708490,-20.08794
2021-05-25 11:41:51.724120,-24.25378
2021-05-25 11:41:51.739740,-28.1852
2021-05-25 11:41:51.755370,-31.07141
2021-05-25 11:41:51.770990,-32.02826
2021-05-25 11:41:51.786620,-30.46385
2021-05-25 11:41:51.802250,-26.32523
2021-05-25 11:41:51.817870,-20.15878
2021-05-25 11:41:51.833500,-12.90587
2021-05-25 11:41:51.849120,-5.564178
2021-05-25 11:41:51.864750,1.15596
2021-05-25 11:41:51.880370,6.954102
2021-05-25 11:41:51.896000,11.89247
2021-05-25 11:41:51.927250,20.00842
2021-05-25 11:41:51.942880,23.40211
2021-05-25 11:41:51.958500,26.31374
2021-05-25 11:41:51.974130,28.62019
2021-05-25 11:41:51.989750,30.19449
2021-05-25 11:41:52.005380,30.89195
2021-05-25 11:41:52.021010,30.58418
2021-05-25 11:41:52.036630,29.20105
2021-05-25 11:41:52.052260,26.85518
2021-05-25 11:41:52.067880,23.91479
2021-05-25 11:41:52.083510,21.02141
2021-05-25 11:41:52.099130,18.92282
2021-05-25 11:41:52.114760,18.22595
2021-05-25 11:41:52.130390,19.11507
2021-05-25 11:41:52.146010,21.22675
2021-05-25 11:41:52.161640,23.78766
2021-05-25 11:41:52.177260,25.93723
2021-05-25 11:41:52.192890,27.07025
2021-05-25 11:41:52.208510,27.06595
2021-05-25 11:41:52.224140,26.17859
2021-05-25 11:41:52.239770,24.82132
2021-05-25 11:41:52.255390,23.28433
2021-05-25 11:41:52.271020,21.66449
2021-05-25 11:41:52.286640,19.94189
2021-05-25 11:41:52.302270,18.16763
2021-05-25 11:41:52.317900,16.58533
2021-05-25 11:41:52.333520,15.49847
2021-05-25 11:41:52.349150,15.02783
2021-05-25 11:41:52.364770,14.96753
2021-05-25 11:41:52.380400,14.85257
2021-05-25 11:41:52.396020,14.26843
2021-05-25 11:41:52.411650,13.07983
2021-05-25 11:41:52.427280,11.43835
2021-05-25 11:41:52.442900,9.503906
2021-05-25 11:41:52.458530,7.090302
2021-05-25 11:41:52.474150,3.559418
2021-05-25 11:41:52.489780,-1.949829
2021-05-25 11:41:52.505400,-9.979309
2021-05-25 11:41:52.521030,-20.27713
2021-05-25 11:41:52.536660,-31.67419
2021-05-25 11:41:52.552280,-42.49258
2021-05-25 11:41:52.567910,-51.22809
2021-05-25 11:41:52.583530,-57.14011
2021-05-25 11:41:52.599160,-60.48026
2021-05-25 11:41:52.614780,-62.17569
2021-05-25 11:41:52.630410,-63.22937
2021-05-25 11:41:52.646040,-64.21716
2021-05-25 11:41:52.661660,-65.14868
2021-05-25 11:41:52.677290,-65.77841
2021-05-25 11:41:52.692910,-66.11331
2021-05-25 11:41:52.708540,-66.75131
2021-05-25 11:41:52.724160,-68.73508
2021-05-25 11:41:52.739790,-72.99222
2021-05-25 11:41:52.755420,-79.57428
2021-05-25 11:41:52.771040,-87.25436
2021-05-25 11:41:52.786670,-93.86859
2021-05-25 11:41:52.802290,-97.32669
2021-05-25 11:41:52.817920,-96.70303
2021-05-25 11:41:52.833540,-92.81543
2021-05-25 11:41:52.849170,-87.77417
2021-05-25 11:41:52.864800,-83.74216
2021-05-25 11:41:52.880420,-81.68362
2021-05-25 11:41:52.896050,-80.73181
2021-05-25 11:41:52.911670,-78.60623
2021-05-25 11:41:52.927300,-72.76498
2021-05-25 11:41:52.942920,-61.62183
2021-05-25 11:41:52.958550,-45.22241
2021-05-25 11:41:52.974180,-25.05469
2021-05-25 11:41:52.989800,-3.306763
2021-05-25 11:41:53.005430,17.98431
2021-05-25 11:41:53.021050,37.42218
2021-05-25 11:41:53.036680,54.3075
2021-05-25 11:41:53.052300,68.3811
2021-05-25 11:41:53.067930,79.50513
2021-05-25 11:41:53.083560,87.68469
2021-05-25 11:41:53.099180,93.1228
2021-05-25 11:41:53.114810,96.38806
2021-05-25 11:41:53.130430,98.38049
2021-05-25 11:41:53.146060,100.0899
2021-05-25 11:41:53.161680,102.2179
2021-05-25 11:41:53.177310,104.8384
2021-05-25 11:41:53.192940,107.2787
2021-05-25 11:41:53.208560,108.3372
2021-05-25 11:41:53.224190,106.7668
2021-05-25 11:41:53.239810,101.7627
2021-05-25 11:41:53.255440,93.28278
2021-05-25 11:41:53.271060,81.98425
2021-05-25 11:41:53.286690,68.88806
2021-05-25 11:41:53.302320,55.0094
2021-05-25 11:41:53.317940,41.16913
2021-05-25 11:41:53.333570,28.04755
2021-05-25 11:41:53.349190,16.37616
2021-05-25 11:41:53.364820,7.052734
2021-05-25 11:41:53.380440,0.9847412
2021-05-25 11:41:53.396070,-1.242493
2021-05-25 11:41:53.411700,0.2622681
2021-05-25 11:41:53.427320,4.605957
2021-05-25 11:41:53.442950,10.32629
2021-05-25 11:41:53.458570,15.88898
2021-05-25 11:41:53.474200,20.2019
2021-05-25 11:41:53.489820,22.89685
2021-05-25 11:41:53.505450,24.22723
2021-05-25 11:41:53.521080,24.74396
2021-05-25 11:41:53.536700,24.88593
2021-05-25 11:41:53.552330,24.80243
2021-05-25 11:41:53.567950,24.33124
2021-05-25 11:41:53.583580,23.24902
2021-05-25 11:41:53.599200,21.46417
2021-05-25 11:41:53.614830,19.1239
2021-05-25 11:41:53.630460,16.51044
2021-05-25 11:41:53.646080,13.83539
2021-05-25 11:41:53.661710,11.14832
2021-05-25 11:41:53.677330,8.344727
2021-05-25 11:41:53.692960,5.313782
2021-05-25 11:41:53.708580,2.113342
2021-05-25 11:41:53.724210,-0.9672241
2021-05-25 11:41:53.739840,-3.51062
2021-05-25 11:41:53.755460,-5.169861
2021-05-25 11:41:53.771090,-5.840149
2021-05-25 11:41:53.786710,-5.755798
2021-05-25 11:41:53.802340,-5.356079
2021-05-25 11:41:53.817960,-5.091614
2021-05-25 11:41:53.833590,-5.234131
2021-05-25 11:41:53.849220,-5.809448
2021-05-25 11:41:53.864840,-6.628052
2021-05-25 11:41:53.880470,-7.418762
2021-05-25 11:41:53.896090,-7.989746
2021-05-25 11:41:53.911720,-8.308838
2021-05-25 11:41:53.927340,-8.528442
2021-05-25 11:41:53.942970,-8.883789
2021-05-25 11:41:53.958600,-9.615784
2021-05-25 11:41:53.974220,-10.84869
2021-05-25 11:41:53.989850,-12.56427
2021-05-25 11:41:54.005470,-14.60962
2021-05-25 11:41:54.021100,-16.7998
2021-05-25 11:41:54.036720,-19.03021
2021-05-25 11:41:54.052350,-21.30438
2021-05-25 11:41:54.067980,-23.74451
2021-05-25 11:41:54.083600,-26.52905
2021-05-25 11:41:54.099230,-29.78265
2021-05-25 11:41:54.114850,-33.44336
2021-05-25 11:41:54.130480,-37.20367
2021-05-25 11:41:54.146100,-40.49225
2021-05-25 11:41:54.161730,-42.59485
2021-05-25 11:41:54.177360,-42.86371
2021-05-25 11:41:54.192980,-40.95105
2021-05-25 11:41:54.208610,-36.95392
2021-05-25 11:41:54.224230,-31.45367
2021-05-25 11:41:54.239860,-25.32428
2021-05-25 11:41:54.255480,-19.48346
2021-05-25 11:41:54.271110,-14.55457
2021-05-25 11:41:54.286740,-10.71698
2021-05-25 11:41:54.302360,-7.747375
2021-05-25 11:41:54.317990,-5.197937
2021-05-25 11:41:54.333610,-2.663757
2021-05-25 11:41:54.349240,0.03607178
2021-05-25 11:41:54.364860,2.827026
2021-05-25 11:41:54.380490,5.492676
2021-05-25 11:41:54.396120,7.797058
2021-05-25 11:41:54.411740,9.631104
2021-05-25 11:41:54.427370,11.03455
2021-05-25 11:41:54.442990,12.17285
2021-05-25 11:41:54.458620,13.24316
2021-05-25 11:41:54.474240,14.41516
2021-05-25 11:41:54.489870,15.79651
2021-05-25 11:41:54.505500,17.49109
2021-05-25 11:41:54.521120,19.60388
2021-05-25 11:41:54.536750,22.22632
2021-05-25 11:41:54.552370,25.39856
2021-05-25 11:41:54.568000,29.04785
2021-05-25 11:41:54.583630,32.9613
2021-05-25 11:41:54.599250,36.82886
2021-05-25 11:41:54.614880,40.34082
2021-05-25 11:41:54.630500,43.24988
2021-05-25 11:41:54.646130,45.44214
2021-05-25 11:41:54.661750,46.91431
2021-05-25 11:41:54.677380,47.71545
2021-05-25 11:41:54.693010,47.89526
2021-05-25 11:41:54.708630,47.49158
2021-05-25 11:41:54.724260,46.53882
2021-05-25 11:41:54.739880,45.13232
2021-05-25 11:41:54.755510,43.43213
2021-05-25 11:41:54.771130,41.62354
2021-05-25 11:41:54.786760,39.85522
2021-05-25 11:41:54.802390,38.16138
2021-05-25 11:41:54.818010,36.46912
2021-05-25 11:41:54.833640,34.66455
2021-05-25 11:41:54.849260,32.62952
2021-05-25 11:41:54.864890,30.30029
2021-05-25 11:41:54.880510,27.71997
2021-05-25 11:41:54.896140,24.96326
2021-05-25 11:41:54.911770,22.11865
2021-05-25 11:41:54.927390,19.27222
2021-05-25 11:41:54.943020,16.47876
2021-05-25 11:41:54.958640,13.79993
2021-05-25 11:41:54.974270,11.28186
2021-05-25 11:41:54.989890,8.910156
2021-05-25 11:41:55.005520,6.586914
2021-05-25 11:41:55.021150,4.131714
2021-05-25 11:41:55.036770,1.326172
2021-05-25 11:41:55.052400,-1.960083
2021-05-25 11:41:55.068020,-5.608276
2021-05-25 11:41:55.083650,-9.204712
2021-05-25 11:41:55.099270,-12.10059
2021-05-25 11:41:55.114900,-13.61072
2021-05-25 11:41:55.130530,-13.28687
2021-05-25 11:41:55.146150,-11.11072
2021-05-25 11:41:55.161780,-7.519287
2021-05-25 11:41:55.193030,0.8702393
2021-05-25 11:41:55.208650,4.303101
2021-05-25 11:41:55.224280,6.801392
2021-05-25 11:41:55.239910,8.455688
2021-05-25 11:41:55.255530,9.534302
2021-05-25 11:41:55.271160,10.36121
2021-05-25 11:41:55.286780,11.16101
2021-05-25 11:41:55.302410,12.01917
2021-05-25 11:41:55.318030,12.90833
2021-05-25 11:41:55.333660,13.75012
2021-05-25 11:41:55.349290,14.49255
2021-05-25 11:41:55.364910,15.1189
2021-05-25 11:41:55.380540,15.66187
2021-05-25 11:41:55.396160,16.16479
2021-05-25 11:41:55.411790,16.63721
2021-05-25 11:41:55.427410,17.04297
2021-05-25 11:41:55.443040,17.34851
2021-05-25 11:41:55.458670,17.52625
2021-05-25 11:41:55.474290,17.5874
2021-05-25 11:41:55.489920,17.57104
2021-05-25 11:41:55.505540,17.52124
2021-05-25 11:41:55.521170,17.43127
2021-05-25 11:41:55.536790,17.24341
2021-05-25 11:41:55.552420,16.85535
2021-05-25 11:41:55.568050,16.20789
2021-05-25 11:41:55.583670,15.32227
2021-05-25 11:41:55.599300,14.32349
2021-05-25 11:41:55.614920,13.3905
2021-05-25 11:41:55.630550,12.68774
2021-05-25 11:41:55.646170,12.28967
2021-05-25 11:41:55.661800,12.13831
2021-05-25 11:41:55.677430,12.09106
2021-05-25 11:41:55.693050,11.96094
2021-05-25 11:41:55.708680,11.62854
2021-05-25 11:41:55.724300,11.09619
2021-05-25 11:41:55.739930,10.45544
2021-05-25 11:41:55.755550,9.819336
2021-05-25 11:41:55.771180,9.245728
2021-05-25 11:41:55.786810,8.693848
2021-05-25 11:41:55.802430,8.034546
2021-05-25 11:41:55.818060,7.150757
2021-05-25 11:41:55.833680,5.966431
2021-05-25 11:41:55.849310,4.500732
2021-05-25 11:41:55.864930,2.826782
2021-05-25 11:41:55.880560,1.04541
2021-05-25 11:41:55.896190,-0.7453613
2021-05-25 11:41:55.911810,-2.483276
2021-05-25 11:41:55.927440,-4.158203
2021-05-25 11:41:55.943060,-5.797729
2021-05-25 11:41:55.958690,-7.486572
2021-05-25 11:41:55.974310,-9.359131
2021-05-25 11:41:55.989940,-11.55212
2021-05-25 11:41:56.005570,-14.14014
2021-05-25 11:41:56.021190,-17.02136
2021-05-25 11:41:56.036820,-19.87329
2021-05-25 11:41:56.052440,-22.17114
2021-05-25 11:41:56.068070,-23.33081
2021-05-25 11:41:56.083690,-22.922
2021-05-25 11:41:56.099320,-20.8429
2021-05-25 11:41:56.114950,-17.41638
2021-05-25 11:41:56.130570,-13.2699
2021-05-25 11:41:56.146200,-9.13501
2021-05-25 11:41:56.161820,-5.595581
2021-05-25 11:41:56.177450,-2.926147
2021-05-25 11:41:56.193070,-1.100952
2021-05-25 11:41:56.208700,0.1184082
2021-05-25 11:41:56.224330,1.037964
2021-05-25 11:41:56.239950,1.914307
2021-05-25 11:41:56.255580,2.90979
2021-05-25 11:41:56.271200,4.077515
2021-05-25 11:41:56.286830,5.422485
2021-05-25 11:41:56.302450,6.875366
2021-05-25 11:41:56.318080,8.35498
2021-05-25 11:41:56.333710,9.745972
2021-05-25 11:41:56.349330,10.93372
2021-05-25 11:41:56.364960,11.82312
2021-05-25 11:41:56.380580,12.35522
2021-05-25 11:41:56.396210,12.54565
2021-05-25 11:41:56.411830,12.46753
2021-05-25 11:41:56.427460,12.26868
2021-05-25 11:41:56.443090,12.13928
2021-05-25 11:41:56.458710,12.24158
2021-05-25 11:41:56.474340,12.63086
2021-05-25 11:41:56.489960,13.22302
2021-05-25 11:41:56.505590,13.81165
2021-05-25 11:41:56.521210,14.15686
2021-05-25 11:41:56.536840,14.13245
2021-05-25 11:41:56.552470,13.76624
2021-05-25 11:41:56.568090,13.22766
2021-05-25 11:41:56.583720,12.71741
2021-05-25 11:41:56.599340,12.37537
2021-05-25 11:41:56.614970,12.21216
2021-05-25 11:41:56.630590,12.12537
2021-05-25 11:41:56.646220,11.98083
2021-05-25 11:41:56.661850,11.65942
2021-05-25 11:41:56.677470,11.13123
2021-05-25 11:41:56.693100,10.42786
2021-05-25 11:41:56.708720,9.63855
2021-05-25 11:41:56.724350,8.854492
2021-05-25 11:41:56.739970,8.127441
2021-05-25 11:41:56.755600,7.46521
2021-05-25 11:41:56.771230,6.7948
2021-05-25 11:41:56.786850,6.036865
2021-05-25 11:41:56.802480,5.11731
2021-05-25 11:41:56.818100,4.025879
2021-05-25 11:41:56.833730,2.813599
2021-05-25 11:41:56.849350,1.580566
2021-05-25 11:41:56.864980,0.4169922
2021-05-25 11:41:56.880610,-0.5997314
2021-05-25 11:41:56.896230,-1.447388
2021-05-25 11:41:56.911860,-2.140747
2021-05-25 11:41:56.927480,-2.760742
2021-05-25 11:41:56.943110,-3.444824
2021-05-25 11:41:56.958730,-4.359741
2021-05-25 11:41:56.974360,-5.646729
2021-05-25 11:41:56.989990,-7.299072
2021-05-25 11:41:57.005610,-9.078003
2021-05-25 11:41:57.021240,-10.51953
2021-05-25 11:41:57.036860,-11.0575
2021-05-25 11:41:57.052490,-10.22546
2021-05-25 11:41:57.068120,-7.832886
2021-05-25 11:41:57.083740,-4.049927
2021-05-25 11:41:57.099370,0.6574707
2021-05-25 11:41:57.114990,5.685547
2021-05-25 11:41:57.130620,10.45251
2021-05-25 11:41:57.146240,14.5531
2021-05-25 11:41:57.161870,17.80408
2021-05-25 11:41:57.177500,20.25928
2021-05-25 11:41:57.193120,22.12573
2021-05-25 11:41:57.208750,23.72009
2021-05-25 11:41:57.224370,25.35242
2021-05-25 11:41:57.240000,27.27063
2021-05-25 11:41:57.255620,29.63867
2021-05-25 11:41:57.271250,32.50476
2021-05-25 11:41:57.286880,35.82556
2021-05-25 11:41:57.302500,39.46521
2021-05-25 11:41:57.333750,46.76123
2021-05-25 11:41:57.349380,49.98071
2021-05-25 11:41:57.365000,52.79211
2021-05-25 11:41:57.380630,55.27466
2021-05-25 11:41:57.396260,57.53528
2021-05-25 11:41:57.411880,59.55969
2021-05-25 11:41:57.427510,61.09619
2021-05-25 11:41:57.443130,61.70935
2021-05-25 11:41:57.458760,60.97925
2021-05-25 11:41:57.474380,58.74731
2021-05-25 11:41:57.490010,55.24164
2021-05-25 11:41:57.505640,50.97626
2021-05-25 11:41:57.521260,46.58197
2021-05-25 11:41:57.536890,42.6123
2021-05-25 11:41:57.552510,39.43793
2021-05-25 11:41:57.568140,37.26367
2021-05-25 11:41:57.583760,36.14203
2021-05-25 11:41:57.599390,35.87103
2021-05-25 11:41:57.615020,35.88654
2021-05-25 11:41:57.630640,35.31036
2021-05-25 11:41:57.646270,33.16516
2021-05-25 11:41:57.661890,28.7207
2021-05-25 11:41:57.677520,21.78595
2021-05-25 11:41:57.693140,12.83167
2021-05-25 11:41:57.708770,2.963379
2021-05-25 11:41:57.724400,-6.319153
2021-05-25 11:41:57.740020,-13.51459
2021-05-25 11:41:57.755650,-17.55762
2021-05-25 11:41:57.771270,-18.16211
2021-05-25 11:41:57.786900,-15.96027
2021-05-25 11:41:57.802520,-12.25287
2021-05-25 11:41:57.818150,-8.521973
2021-05-25 11:41:57.833780,-5.874268
2021-05-25 11:41:57.849400,-4.680115
2021-05-25 11:41:57.865030,-4.641724
2021-05-25 11:41:57.880650,-5.230225
2021-05-25 11:41:57.896280,-6.175964
2021-05-25 11:41:57.911900,-7.643799
2021-05-25 11:41:57.927530,-10.05212
2021-05-25 11:41:57.943160,-13.59387
2021-05-25 11:41:57.958780,-17.8775
2021-05-25 11:41:57.974410,-21.99268
2021-05-25 11:41:57.990030,-24.9342
2021-05-25 11:41:58.005660,-26.16473
2021-05-25 11:41:58.021280,-25.85175
2021-05-25 11:41:58.036910,-24.70361
2021-05-25 11:41:58.052540,-23.55511
2021-05-25 11:41:58.068160,-22.97937
2021-05-25 11:41:58.083790,-23.0932
2021-05-25 11:41:58.099410,-23.6452
2021-05-25 11:41:58.115040,-24.25958
2021-05-25 11:41:58.130660,-24.70978
2021-05-25 11:41:58.146290,-25.02313
2021-05-25 11:41:58.161920,-25.422
2021-05-25 11:41:58.177540,-26.14099
2021-05-25 11:41:58.193170,-27.24579
2021-05-25 11:41:58.208790,-28.60052
2021-05-25 11:41:58.224420,-29.94586
2021-05-25 11:41:58.240040,-31.08063
2021-05-25 11:41:58.255670,-31.97516
2021-05-25 11:41:58.271300,-32.77112
2021-05-25 11:41:58.286920,-33.65961
2021-05-25 11:41:58.302550,-34.76654
2021-05-25 11:41:58.318170,-36.07697
2021-05-25 11:41:58.333800,-37.50928
2021-05-25 11:41:58.349420,-39.03674
2021-05-25 11:41:58.365050,-40.76605
2021-05-25 11:41:58.380680,-42.86456
2021-05-25 11:41:58.396300,-45.46509
2021-05-25 11:41:58.411930,-48.4809
2021-05-25 11:41:58.427550,-51.56653
2021-05-25 11:41:58.443180,-54.18738
2021-05-25 11:41:58.458800,-55.81177
2021-05-25 11:41:58.474430,-56.05457
2021-05-25 11:41:58.490060,-54.78741
2021-05-25 11:41:58.505680,-52.11432
2021-05-25 11:41:58.521310,-48.31525
2021-05-25 11:41:58.536930,-43.77942
2021-05-25 11:41:58.552560,-38.9494
2021-05-25 11:41:58.568180,-34.24078
2021-05-25 11:41:58.583810,-29.99609
2021-05-25 11:41:58.599440,-26.44037
2021-05-25 11:41:58.615060,-23.64233
2021-05-25 11:41:58.630690,-21.54242
2021-05-25 11:41:58.646310,-20.00934
2021-05-25 11:41:58.661940,-18.91327
2021-05-25 11:41:58.677560,-18.15326
2021-05-25 11:41:58.693190,-17.6994
2021-05-25 11:41:58.708820,-17.5412
2021-05-25 11:41:58.724440,-17.69562
2021-05-25 11:41:58.740070,-18.17645
2021-05-25 11:41:58.755690,-18.95166
2021-05-25 11:41:58.771320,-19.89398
2021-05-25 11:41:58.786940,-20.73022
2021-05-25 11:41:58.802570,-21.08368
2021-05-25 11:41:58.818200,-20.53882
2021-05-25 11:41:58.833820,-18.83148
2021-05-25 11:41:58.849450,-15.94202
2021-05-25 11:41:58.865070,-12.18127
2021-05-25 11:41:58.880700,-8.084534
2021-05-25 11:41:58.896320,-4.256165
2021-05-25 11:41:58.911950,-1.163452
2021-05-25 11:41:58.927580,0.9594116
2021-05-25 11:41:58.943200,2.187012
2021-05-25 11:41:58.958830,2.792786
2021-05-25 11:41:58.974450,3.146912
2021-05-25 11:41:58.990080,3.589783
2021-05-25 11:41:59.005700,4.329163
2021-05-25 11:41:59.021330,5.417419
2021-05-25 11:41:59.036960,6.748169
2021-05-25 11:41:59.052580,8.143372
2021-05-25 11:41:59.068210,9.405884
2021-05-25 11:41:59.083830,10.40875
2021-05-25 11:41:59.099460,11.10938
2021-05-25 11:41:59.115080,11.51453
2021-05-25 11:41:59.130710,11.65674
2021-05-25 11:41:59.146340,11.59131
2021-05-25 11:41:59.161960,11.37842
2021-05-25 11:41:59.177590,11.13196
2021-05-25 11:41:59.193210,11.01605
2021-05-25 11:41:59.208840,11.1803
2021-05-25 11:41:59.224460,11.70264
2021-05-25 11:41:59.240090,12.5274
2021-05-25 11:41:59.255720,13.45715
2021-05-25 11:41:59.271340,14.24609
2021-05-25 11:41:59.286970,14.67987
2021-05-25 11:41:59.302590,14.66858
2021-05-25 11:41:59.318220,14.26221
2021-05-25 11:41:59.333840,13.58667
2021-05-25 11:41:59.349470,12.79529
2021-05-25 11:41:59.365100,12.01813
2021-05-25 11:41:59.380720,11.34259
2021-05-25 11:41:59.396350,10.82532
2021-05-25 11:41:59.411970,10.53333
2021-05-25 11:41:59.427600,10.51941
2021-05-25 11:41:59.443230,10.79077
2021-05-25 11:41:59.458850,11.28571
2021-05-25 11:41:59.474480,11.84818
2021-05-25 11:41:59.490100,12.28323
2021-05-25 11:41:59.505730,12.43829
2021-05-25 11:41:59.521350,12.28452
2021-05-25 11:41:59.536980,11.9393
2021-05-25 11:41:59.552610,11.63107
2021-05-25 11:41:59.568230,11.53842
2021-05-25 11:41:59.583860,11.69562
2021-05-25 11:41:59.599480,11.92746
2021-05-25 11:41:59.615110,11.91467
2021-05-25 11:41:59.630730,11.33871
2021-05-25 11:41:59.646360,10.07175
2021-05-25 11:41:59.661990,8.218201
2021-05-25 11:41:59.677610,6.059814
2021-05-25 11:41:59.693240,3.946808
2021-05-25 11:41:59.708860,2.169189
2021-05-25 11:41:59.724490,0.9211426
2021-05-25 11:41:59.740110,0.3143616
2021-05-25 11:41:59.755740,0.3991699
2021-05-25 11:41:59.771370,1.176605
2021-05-25 11:41:59.786990,2.551727
2021-05-25 11:41:59.802620,4.323547
2021-05-25 11:41:59.818240,6.190857
2021-05-25 11:41:59.833870,7.851379
2021-05-25 11:41:59.849490,9.097595
2021-05-25 11:41:59.865120,9.889557
2021-05-25 11:41:59.880750,10.27124
2021-05-25 11:41:59.896370,10.22681
2021-05-25 11:41:59.912000,9.554169
2021-05-25 11:41:59.927620,7.867981
2021-05-25 11:41:59.943250,4.771118
2021-05-25 11:41:59.958870,0.1343689
2021-05-25 11:41:59.974500,-5.667267
2021-05-25 11:41:59.990130,-11.77731
2021-05-25 11:42:00.005750,-17.07147
2021-05-25 11:42:00.021380,-20.59271
2021-05-25 11:42:00.037000,-21.89618
2021-05-25 11:42:00.052630,-21.19202
2021-05-25 11:42:00.068250,-19.21082
2021-05-25 11:42:00.083880,-16.85901
2021-05-25 11:42:00.099510,-14.89706
2021-05-25 11:42:00.115130,-13.73813
2021-05-25 11:42:00.130760,-13.50089
2021-05-25 11:42:00.146380,-14.10245
2021-05-25 11:42:00.162010,-15.39459
2021-05-25 11:42:00.177630,-17.16168
2021-05-25 11:42:00.193260,-19.10184
2021-05-25 11:42:00.208890,-20.81491
2021-05-25 11:42:00.224510,-21.85092
2021-05-25 11:42:00.240140,-21.89001
2021-05-25 11:42:00.255760,-20.87894
2021-05-25 11:42:00.271390,-19.05579
2021-05-25 11:42:00.287010,-16.83572
2021-05-25 11:42:00.302640,-14.58191
2021-05-25 11:42:00.318270,-12.46368
2021-05-25 11:42:00.333890,-10.40729
2021-05-25 11:42:00.349520,-8.222839
2021-05-25 11:42:00.365140,-5.759186
2021-05-25 11:42:00.380770,-3.03186
2021-05-25 11:42:00.396390,-0.2367249
2021-05-25 11:42:00.412020,2.354004
2021-05-25 11:42:00.427650,4.52298
2021-05-25 11:42:00.443270,6.218689
2021-05-25 11:42:00.458900,7.526306
2021-05-25 11:42:00.474520,8.602997
2021-05-25 11:42:00.490150,9.550568
2021-05-25 11:42:00.505770,10.37112
2021-05-25 11:42:00.521400,10.95871
2021-05-25 11:42:00.537030,11.1857
2021-05-25 11:42:00.552650,10.96155
2021-05-25 11:42:00.568280,10.24051
2021-05-25 11:42:00.583900,9.000763
2021-05-25 11:42:00.599530,7.219391
2021-05-25 11:42:00.615150,4.890259
2021-05-25 11:42:00.630780,2.067719
2021-05-25 11:42:00.646410,-1.037537
2021-05-25 11:42:00.662030,-4.059052
2021-05-25 11:42:00.677660,-6.525726
2021-05-25 11:42:00.693280,-8.008606
2021-05-25 11:42:00.708910,-8.324707
2021-05-25 11:42:00.724530,-7.578735
2021-05-25 11:42:00.740160,-6.115356
2021-05-25 11:42:00.755790,-4.359497
2021-05-25 11:42:00.771410,-2.657837
2021-05-25 11:42:00.787040,-1.177612
2021-05-25 11:42:00.802660,0.1061401
2021-05-25 11:42:00.818290,1.318085
2021-05-25 11:42:00.833910,2.605591
2021-05-25 11:42:00.849540,4.069519
2021-05-25 11:42:00.865170,5.778351
2021-05-25 11:42:00.880790,7.738739
2021-05-25 11:42:00.896420,9.925964
2021-05-25 11:42:00.912040,12.26474
2021-05-25 11:42:00.927670,14.65991
2021-05-25 11:42:00.943290,17.04715
2021-05-25 11:42:00.958920,19.4552
2021-05-25 11:42:00.974550,21.97031
2021-05-25 11:42:00.990170,24.73257
2021-05-25 11:42:01.005800,27.81354
2021-05-25 11:42:01.021420,31.13071
2021-05-25 11:42:01.037050,34.4458
2021-05-25 11:42:01.052670,37.44147
2021-05-25 11:42:01.068300,39.86545
2021-05-25 11:42:01.083930,41.65128
2021-05-25 11:42:01.099550,42.94827
2021-05-25 11:42:01.115180,44.01758
2021-05-25 11:42:01.130800,45.13025
2021-05-25 11:42:01.146430,46.46948
2021-05-25 11:42:01.162050,48.09198
2021-05-25 11:42:01.177680,49.89993
2021-05-25 11:42:01.193310,51.58974
2021-05-25 11:42:01.208930,52.58536
2021-05-25 11:42:01.224560,52.04099
2021-05-25 11:42:01.240180,49.05295
2021-05-25 11:42:01.255810,43.03288
2021-05-25 11:42:01.271430,34.11415
2021-05-25 11:42:01.287060,23.2962
2021-05-25 11:42:01.302690,12.23843
2021-05-25 11:42:01.318310,2.669312
2021-05-25 11:42:01.333940,-4.287216
2021-05-25 11:42:01.349560,-8.473129
2021-05-25 11:42:01.365190,-10.62378
2021-05-25 11:42:01.380810,-11.86703
2021-05-25 11:42:01.396440,-13.1311
2021-05-25 11:42:01.412070,-14.77126
2021-05-25 11:42:01.427690,-16.62682
2021-05-25 11:42:01.443320,-18.35141
2021-05-25 11:42:01.458940,-19.70883
2021-05-25 11:42:01.474570,-20.69138
2021-05-25 11:42:01.490190,-21.3495
2021-05-25 11:42:01.505820,-21.61308
2021-05-25 11:42:01.521450,-21.1954
2021-05-25 11:42:01.537070,-19.77234
2021-05-25 11:42:01.552700,-17.22562
2021-05-25 11:42:01.568320,-13.83382
2021-05-25 11:42:01.583950,-10.24512
2021-05-25 11:42:01.599580,-7.22802
2021-05-25 11:42:01.615200,-5.38102
2021-05-25 11:42:01.630830,-4.95031
2021-05-25 11:42:01.646450,-5.829475
2021-05-25 11:42:01.662080,-7.681976
2021-05-25 11:42:01.677700,-10.10821
2021-05-25 11:42:01.693330,-12.70535
2021-05-25 11:42:01.708960,-15.12896
2021-05-25 11:42:01.724580,-17.10433
2021-05-25 11:42:01.740210,-18.49831
2021-05-25 11:42:01.755830,-19.36212
2021-05-25 11:42:01.771460,-19.93774
2021-05-25 11:42:01.787080,-20.53769
2021-05-25 11:42:01.802710,-21.42037
2021-05-25 11:42:01.818340,-22.66369
2021-05-25 11:42:01.833960,-24.15936
2021-05-25 11:42:01.849590,-25.70129
2021-05-25 11:42:01.865210,-27.09395
2021-05-25 11:42:01.880840,-28.27743
2021-05-25 11:42:01.896460,-29.33361
2021-05-25 11:42:01.912090,-30.47166
2021-05-25 11:42:01.927720,-31.93688
2021-05-25 11:42:01.943340,-33.94529
2021-05-25 11:42:01.958970,-36.57187
2021-05-25 11:42:01.974590,-39.71304
2021-05-25 11:42:01.990220,-43.05293
2021-05-25 11:42:02.005840,-46.15059
2021-05-25 11:42:02.021470,-48.52974
2021-05-25 11:42:02.037100,-49.82711
2021-05-25 11:42:02.052720,-49.93777
2021-05-25 11:42:02.068350,-49.06264
2021-05-25 11:42:02.083970,-47.69324
2021-05-25 11:42:02.099600,-46.45429
2021-05-25 11:42:02.115220,-45.88026
2021-05-25 11:42:02.130850,-46.22348
2021-05-25 11:42:02.146480,-47.31891
2021-05-25 11:42:02.162100,-48.65652
2021-05-25 11:42:02.177730,-49.60792
2021-05-25 11:42:02.193350,-49.73312
2021-05-25 11:42:02.208980,-49.0121
2021-05-25 11:42:02.224600,-47.83016
2021-05-25 11:42:02.240230,-46.80731
2021-05-25 11:42:02.255860,-46.4519
2021-05-25 11:42:02.271480,-46.90982
2021-05-25 11:42:02.287110,-47.87173
2021-05-25 11:42:02.302730,-48.73201
2021-05-25 11:42:02.318360,-48.77893
2021-05-25 11:42:02.333980,-47.42961
2021-05-25 11:42:02.349610,-44.33768
2021-05-25 11:42:02.365240,-39.42292
2021-05-25 11:42:02.380860,-32.87481
2021-05-25 11:42:02.396490,-25.09643
2021-05-25 11:42:02.412110,-16.65598
2021-05-25 11:42:02.427740,-8.204183
2021-05-25 11:42:02.443360,-0.3818088
2021-05-25 11:42:02.458990,6.283914
2021-05-25 11:42:02.474620,11.43275
2021-05-25 11:42:02.490240,14.90475
2021-05-25 11:42:02.505870,16.74006
2021-05-25 11:42:02.521490,17.17597
2021-05-25 11:42:02.537120,16.62611
2021-05-25 11:42:02.552740,15.58712
2021-05-25 11:42:02.568370,14.54382
2021-05-25 11:42:02.584000,13.82343
2021-05-25 11:42:02.599620,13.50403
2021-05-25 11:42:02.615250,13.45335
2021-05-25 11:42:02.630870,13.43801
2021-05-25 11:42:02.646500,13.28996
2021-05-25 11:42:02.662120,12.98426
2021-05-25 11:42:02.677750,12.63992
2021-05-25 11:42:02.693380,12.40601
2021-05-25 11:42:02.709000,12.35561
2021-05-25 11:42:02.724630,12.44531
2021-05-25 11:42:02.740250,12.45558
2021-05-25 11:42:02.755880,11.98106
2021-05-25 11:42:02.771500,10.40471
2021-05-25 11:42:02.787130,7.020542
2021-05-25 11:42:02.802760,1.259682
2021-05-25 11:42:02.818380,-6.85775
2021-05-25 11:42:02.834010,-16.34181
2021-05-25 11:42:02.849630,-25.24409
2021-05-25 11:42:02.865260,-31.13194
2021-05-25 11:42:02.880880,-32.08648
2021-05-25 11:42:02.896510,-27.54914
2021-05-25 11:42:02.912140,-18.69063
2021-05-25 11:42:02.927760,-7.927628
2021-05-25 11:42:02.943390,2.114532
2021-05-25 11:42:02.959010,9.721474
2021-05-25 11:42:02.974640,14.64507
2021-05-25 11:42:02.990260,17.81915
2021-05-25 11:42:03.005890,20.56284
2021-05-25 11:42:03.021520,23.70318
2021-05-25 11:42:03.037140,27.24123
2021-05-25 11:42:03.052770,30.54838
2021-05-25 11:42:03.068390,32.96562
2021-05-25 11:42:03.084020,34.30794
2021-05-25 11:42:03.099640,34.97305
2021-05-25 11:42:03.115270,35.62283
2021-05-25 11:42:03.130900,36.76876
2021-05-25 11:42:03.146520,38.46895
2021-05-25 11:42:03.162150,40.3777
2021-05-25 11:42:03.177770,42.08086
2021-05-25 11:42:03.193400,43.5082
2021-05-25 11:42:03.209020,45.1132
2021-05-25 11:42:03.224650,47.77399
2021-05-25 11:42:03.240280,52.38722
2021-05-25 11:42:03.255900,59.39864
2021-05-25 11:42:03.271530,68.50174
2021-05-25 11:42:03.287150,78.71997
2021-05-25 11:42:03.302780,88.77367
2021-05-25 11:42:03.318400,97.62482
2021-05-25 11:42:03.334030,104.9134
2021-05-25 11:42:03.349660,111.073
2021-05-25 11:42:03.365280,117.0876
2021-05-25 11:42:03.380910,124.0073
2021-05-25 11:42:03.396530,132.4554
2021-05-25 11:42:03.412160,142.2761
2021-05-25 11:42:03.427780,152.5606
2021-05-25 11:42:03.443410,161.9346
2021-05-25 11:42:03.459040,169.0379
2021-05-25 11:42:03.474660,172.9301
2021-05-25 11:42:03.490290,173.2723
2021-05-25 11:42:03.505910,170.196
2021-05-25 11:42:03.521540,164.0822
2021-05-25 11:42:03.537160,155.341
2021-05-25 11:42:03.552790,144.4114
2021-05-25 11:42:03.568420,131.8456
2021-05-25 11:42:03.584040,118.3958
2021-05-25 11:42:03.599670,104.8815
2021-05-25 11:42:03.615290,91.85907
2021-05-25 11:42:03.630920,79.33936
2021-05-25 11:42:03.646540,66.75037
2021-05-25 11:42:03.662170,53.28855
2021-05-25 11:42:03.677800,38.43054
2021-05-25 11:42:03.693420,22.34241
2021-05-25 11:42:03.709050,5.855469
2021-05-25 11:42:03.724670,-9.923538
2021-05-25 11:42:03.740300,-24.16022
2021-05-25 11:42:03.755920,-36.62854
2021-05-25 11:42:03.771550,-47.59259
2021-05-25 11:42:03.787180,-57.45926
2021-05-25 11:42:03.802800,-66.36005
2021-05-25 11:42:03.818430,-73.99797
2021-05-25 11:42:03.834050,-79.8512
2021-05-25 11:42:03.849680,-83.53171
2021-05-25 11:42:03.865300,-85.1084
2021-05-25 11:42:03.880930,-85.07516
2021-05-25 11:42:03.896560,-84.13428
2021-05-25 11:42:03.912180,-82.8064
2021-05-25 11:42:03.927810,-81.18924
2021-05-25 11:42:03.943430,-78.85864
2021-05-25 11:42:03.959060,-75.09677
2021-05-25 11:42:03.974680,-69.31329
2021-05-25 11:42:03.990310,-61.43204
2021-05-25 11:42:04.005940,-52.13696
2021-05-25 11:42:04.021560,-42.70419
2021-05-25 11:42:04.037190,-34.62439
2021-05-25 11:42:04.052810,-29.02536
2021-05-25 11:42:04.068440,-26.30664
2021-05-25 11:42:04.084060,-26.04681
2021-05-25 11:42:04.099690,-27.26669
2021-05-25 11:42:04.115320,-28.88007
2021-05-25 11:42:04.130940,-30.18765
2021-05-25 11:42:04.146570,-31.12747
2021-05-25 11:42:04.162190,-32.21326
2021-05-25 11:42:04.177820,-34.271
2021-05-25 11:42:04.193440,-38.08197
2021-05-25 11:42:04.209070,-44.01825
2021-05-25 11:42:04.224700,-51.81665
2021-05-25 11:42:04.240320,-60.6239
2021-05-25 11:42:04.255950,-69.20007
2021-05-25 11:42:04.271570,-76.21265
2021-05-25 11:42:04.287200,-80.50922
2021-05-25 11:42:04.302830,-81.3064
2021-05-25 11:42:04.318450,-78.26434
2021-05-25 11:42:04.334080,-71.54291
2021-05-25 11:42:04.349700,-61.90491
2021-05-25 11:42:04.365330,-50.73346
2021-05-25 11:42:04.380950,-39.84625
2021-05-25 11:42:04.396580,-31.07758
2021-05-25 11:42:04.412210,-25.68231
2021-05-25 11:42:04.427830,-23.90558
2021-05-25 11:42:04.443460,-24.92859
2021-05-25 11:42:04.459080,-27.25946
2021-05-25 11:42:04.474710,-29.38495
2021-05-25 11:42:04.490330,-30.30377
2021-05-25 11:42:04.505960,-29.77991
2021-05-25 11:42:04.521590,-28.13739
2021-05-25 11:42:04.537210,-25.86041
2021-05-25 11:42:04.552840,-23.18884
2021-05-25 11:42:04.568460,-19.95337
2021-05-25 11:42:04.584090,-15.74036
2021-05-25 11:42:04.599710,-10.17401
2021-05-25 11:42:04.615340,-3.127869
2021-05-25 11:42:04.630970,5.084106
2021-05-25 11:42:04.646590,13.66345
2021-05-25 11:42:04.662220,21.54407
2021-05-25 11:42:04.677840,27.65356
2021-05-25 11:42:04.693470,31.18066
2021-05-25 11:42:04.709090,31.76343
2021-05-25 11:42:04.724720,29.47839
2021-05-25 11:42:04.740350,24.63727
2021-05-25 11:42:04.755970,17.6734
2021-05-25 11:42:04.771600,9.01062
2021-05-25 11:42:04.787220,-0.8654175
2021-05-25 11:42:04.802850,-11.3028
2021-05-25 11:42:04.818470,-21.46436
2021-05-25 11:42:04.834100,-30.53845
2021-05-25 11:42:04.849730,-37.97369
2021-05-25 11:42:04.865350,-43.5976
2021-05-25 11:42:04.880980,-47.53284
2021-05-25 11:42:04.896600,-49.89313
2021-05-25 11:42:04.912230,-50.59851
2021-05-25 11:42:04.927850,-49.46985
2021-05-25 11:42:04.943480,-46.53516
2021-05-25 11:42:04.959110,-42.33679
2021-05-25 11:42:04.974730,-38.0022
2021-05-25 11:42:04.990360,-34.83466
2021-05-25 11:42:05.005980,-33.7179
2021-05-25 11:42:05.021610,-34.71222
2021-05-25 11:42:05.037230,-37.06079
2021-05-25 11:42:05.052860,-39.60675
2021-05-25 11:42:05.068490,-41.33716
2021-05-25 11:42:05.084110,-41.771
2021-05-25 11:42:05.099740,-40.97064
2021-05-25 11:42:05.115360,-39.39838
2021-05-25 11:42:05.130990,-37.70715
2021-05-25 11:42:05.146610,-36.58105
2021-05-25 11:42:05.177870,-37.36841
2021-05-25 11:42:05.193490,-38.28552
2021-05-25 11:42:05.209120,-37.52911
2021-05-25 11:42:05.224740,-33.09583
2021-05-25 11:42:05.240370,-23.52625
2021-05-25 11:42:05.255990,-8.689392
2021-05-25 11:42:05.271620,10.10815
2021-05-25 11:42:05.287250,30.60785
2021-05-25 11:42:05.302870,50.47571
2021-05-25 11:42:05.318500,67.9248
2021-05-25 11:42:05.334120,81.79822
2021-05-25 11:42:05.349750,91.16962
2021-05-25 11:42:05.365370,95.02051
2021-05-25 11:42:05.381000,92.32794
2021-05-25 11:42:05.396630,82.60608
2021-05-25 11:42:05.412250,66.51282
2021-05-25 11:42:05.427880,45.93842
2021-05-25 11:42:05.443500,23.49359
2021-05-25 11:42:05.459130,1.612915
2021-05-25 11:42:05.474750,-18.20386
2021-05-25 11:42:05.490380,-35.5213
2021-05-25 11:42:05.506010,-50.60358
2021-05-25 11:42:05.521630,-63.755
2021-05-25 11:42:05.537260,-74.91193
2021-05-25 11:42:05.552880,-83.53247
2021-05-25 11:42:05.568510,-88.90802
2021-05-25 11:42:05.584130,-90.53546
2021-05-25 11:42:05.599760,-88.34882
2021-05-25 11:42:05.615390,-82.79736
2021-05-25 11:42:05.631010,-74.68439
2021-05-25 11:42:05.646640,-65.03845
2021-05-25 11:42:05.662260,-54.9635
2021-05-25 11:42:05.677890,-45.48596
2021-05-25 11:42:05.693510,-37.36566
2021-05-25 11:42:05.709140,-30.96722
2021-05-25 11:42:05.724770,-26.19629
2021-05-25 11:42:05.740390,-22.57397
2021-05-25 11:42:05.756020,-19.54449
2021-05-25 11:42:05.771640,-16.65863
2021-05-25 11:42:05.787270,-13.74902
2021-05-25 11:42:05.802890,-10.88354
2021-05-25 11:42:05.818520,-8.242249
2021-05-25 11:42:05.834150,-5.897888
2021-05-25 11:42:05.849770,-3.775818
2021-05-25 11:42:05.865400,-1.6922
2021-05-25 11:42:05.881020,0.4706421
2021-05-25 11:42:05.896650,2.642334
2021-05-25 11:42:05.912270,4.59259
2021-05-25 11:42:05.927900,6.057556
2021-05-25 11:42:05.943530,6.975159
2021-05-25 11:42:05.959150,7.554626
2021-05-25 11:42:05.974780,8.181641
2021-05-25 11:42:05.990400,9.222717
2021-05-25 11:42:06.006030,10.76984
2021-05-25 11:42:06.021650,12.60803
2021-05-25 11:42:06.037280,14.33936
2021-05-25 11:42:06.052910,15.6308
2021-05-25 11:42:06.068530,16.3894
2021-05-25 11:42:06.084160,16.78534
2021-05-25 11:42:06.099780,17.14355
2021-05-25 11:42:06.115410,17.73468
2021-05-25 11:42:06.131030,18.67883
2021-05-25 11:42:06.146660,19.91113
2021-05-25 11:42:06.162290,21.24524
2021-05-25 11:42:06.177910,22.44916
2021-05-25 11:42:06.193540,23.3208
2021-05-25 11:42:06.224790,23.45215
2021-05-25 11:42:06.240410,22.66547
2021-05-25 11:42:06.256040,21.52319
2021-05-25 11:42:06.271670,20.38287
2021-05-25 11:42:06.287290,19.65704
2021-05-25 11:42:06.302920,19.64801
2021-05-25 11:42:06.318540,20.37488
2021-05-25 11:42:06.334170,21.51025
2021-05-25 11:42:06.349790,22.4549
2021-05-25 11:42:06.365420,22.58759
2021-05-25 11:42:06.381050,21.53851
2021-05-25 11:42:06.396670,19.35175
2021-05-25 11:42:06.412300,16.4375
2021-05-25 11:42:06.427920,13.31659
2021-05-25 11:42:06.443550,10.33734
2021-05-25 11:42:06.459180,7.483826
2021-05-25 11:42:06.474800,4.452942
2021-05-25 11:42:06.490430,0.8963623
2021-05-25 11:42:06.506050,-3.310425
2021-05-25 11:42:06.521680,-7.921875
2021-05-25 11:42:06.537300,-12.43323
2021-05-25 11:42:06.552930,-16.34894
2021-05-25 11:42:06.568560,-19.41248
2021-05-25 11:42:06.584180,-21.71271
2021-05-25 11:42:06.599810,-23.58472
2021-05-25 11:42:06.615430,-25.45221
2021-05-25 11:42:06.631060,-27.63751
2021-05-25 11:42:06.646680,-30.34741
2021-05-25 11:42:06.662310,-33.64301
2021-05-25 11:42:06.677940,-37.508
2021-05-25 11:42:06.693560,-41.83289
2021-05-25 11:42:06.709190,-46.39355
2021-05-25 11:42:06.724810,-50.77753
2021-05-25 11:42:06.740440,-54.39429
2021-05-25 11:42:06.756060,-56.5517
2021-05-25 11:42:06.771690,-56.61017
2021-05-25 11:42:06.787320,-54.22284
2021-05-25 11:42:06.802940,-49.44958
2021-05-25 11:42:06.818570,-42.75513
2021-05-25 11:42:06.834190,-34.82813
2021-05-25 11:42:06.849820,-26.35895
2021-05-25 11:42:06.865440,-17.82208
2021-05-25 11:42:06.881070,-9.424561
2021-05-25 11:42:06.896700,-1.182251
2021-05-25 11:42:06.912320,6.944458
2021-05-25 11:42:06.927950,14.84882
2021-05-25 11:42:06.943570,22.2431
2021-05-25 11:42:06.959200,28.67657
2021-05-25 11:42:06.974820,33.60858
2021-05-25 11:42:06.990450,36.51569
2021-05-25 11:42:07.006080,36.99628
2021-05-25 11:42:07.021700,34.88873
2021-05-25 11:42:07.037330,30.3609
2021-05-25 11:42:07.052950,23.95508
2021-05-25 11:42:07.068580,16.45862
2021-05-25 11:42:07.084200,8.729187
2021-05-25 11:42:07.099830,1.451599
2021-05-25 11:42:07.115460,-5.020874
2021-05-25 11:42:07.131080,-10.67297
2021-05-25 11:42:07.146710,-15.69452
2021-05-25 11:42:07.162330,-20.26184
2021-05-25 11:42:07.177960,-24.38184
2021-05-25 11:42:07.193580,-27.78613
2021-05-25 11:42:07.209210,-30.06348
2021-05-25 11:42:07.224840,-30.80548
2021-05-25 11:42:07.240460,-29.83557
2021-05-25 11:42:07.256090,-27.33893
2021-05-25 11:42:07.271710,-23.82715
2021-05-25 11:42:07.287340,-20.0047
2021-05-25 11:42:07.302960,-16.53992
2021-05-25 11:42:07.318590,-13.89899
2021-05-25 11:42:07.334220,-12.24799
2021-05-25 11:42:07.349840,-11.5495
2021-05-25 11:42:07.365470,-11.6344
2021-05-25 11:42:07.381090,-12.26691
2021-05-25 11:42:07.396720,-13.1983
2021-05-25 11:42:07.412340,-14.18658
2021-05-25 11:42:07.427970,-15.13428
2021-05-25 11:42:07.443600,-16.216
2021-05-25 11:42:07.459220,-17.91431
2021-05-25 11:42:07.474850,-20.76379
2021-05-25 11:42:07.490470,-24.89136
2021-05-25 11:42:07.506100,-29.60773
2021-05-25 11:42:07.521720,-33.39948
2021-05-25 11:42:07.537350,-34.42542
2021-05-25 11:42:07.552980,-31.2298
2021-05-25 11:42:07.568600,-23.41003
2021-05-25 11:42:07.584230,-11.71423
2021-05-25 11:42:07.599850,2.337097
2021-05-25 11:42:07.615480,17.15088
2021-05-25 11:42:07.631100,31.49225
2021-05-25 11:42:07.646730,44.65582
2021-05-25 11:42:07.662360,56.23615
2021-05-25 11:42:07.677980,65.8728
2021-05-25 11:42:07.693610,73.21344
2021-05-25 11:42:07.709230,78.01282
2021-05-25 11:42:07.724860,80.30853
2021-05-25 11:42:07.740480,80.39893
2021-05-25 11:42:07.756110,78.72949
2021-05-25 11:42:07.771740,75.65656
2021-05-25 11:42:07.787360,71.39929
2021-05-25 11:42:07.802990,66.09985
2021-05-25 11:42:07.818610,60.02753
2021-05-25 11:42:07.834240,53.76837
2021-05-25 11:42:07.849860,48.21332
2021-05-25 11:42:07.865490,44.41583
2021-05-25 11:42:07.881120,43.2276
2021-05-25 11:42:07.896740,44.93256
2021-05-25 11:42:07.912370,48.92529
2021-05-25 11:42:07.927990,53.7049
2021-05-25 11:42:07.943620,57.17322
2021-05-25 11:42:07.959240,57.23389
2021-05-25 11:42:07.974870,52.41589
2021-05-25 11:42:07.990500,42.29651
2021-05-25 11:42:08.006120,27.53503
2021-05-25 11:42:08.021750,9.512756
2021-05-25 11:42:08.037370,-10.15619
2021-05-25 11:42:08.053000,-29.95093
2021-05-25 11:42:08.068620,-48.54071
2021-05-25 11:42:08.084250,-64.66425
2021-05-25 11:42:08.099880,-77.05975
2021-05-25 11:42:08.115500,-84.59277
2021-05-25 11:42:08.131130,-86.65643
2021-05-25 11:42:08.146750,-83.56061
2021-05-25 11:42:08.162380,-76.64325
2021-05-25 11:42:08.178000,-67.97998
2021-05-25 11:42:08.193630,-59.70709
2021-05-25 11:42:08.209260,-53.33496
2021-05-25 11:42:08.224880,-49.3208
2021-05-25 11:42:08.240510,-47.13983
2021-05-25 11:42:08.256130,-45.78949
2021-05-25 11:42:08.271760,-44.4068
2021-05-25 11:42:08.287380,-42.62976
2021-05-25 11:42:08.303010,-40.62244
2021-05-25 11:42:08.318640,-38.71283
2021-05-25 11:42:08.334260,-37.01685
2021-05-25 11:42:08.349890,-35.21973
2021-05-25 11:42:08.365510,-32.66559
2021-05-25 11:42:08.381140,-28.67432
2021-05-25 11:42:08.396760,-22.90118
2021-05-25 11:42:08.412390,-15.48779
2021-05-25 11:42:08.428020,-7.004578
2021-05-25 11:42:08.443640,1.805542
2021-05-25 11:42:08.459270,10.27643
2021-05-25 11:42:08.474890,18.00006
2021-05-25 11:42:08.490520,24.82214
2021-05-25 11:42:08.506140,30.685
2021-05-25 11:42:08.521770,35.51062
2021-05-25 11:42:08.537400,39.02148
2021-05-25 11:42:08.553020,40.83386
2021-05-25 11:42:08.568650,40.57135
2021-05-25 11:42:08.584270,38.09033
2021-05-25 11:42:08.599900,33.63654
2021-05-25 11:42:08.615520,27.83441
2021-05-25 11:42:08.631150,21.53784
2021-05-25 11:42:08.646780,15.56464
2021-05-25 11:42:08.662400,10.48834
2021-05-25 11:42:08.678030,6.497864
2021-05-25 11:42:08.693650,3.514404
2021-05-25 11:42:08.709280,1.327209
2021-05-25 11:42:08.724910,-0.2644043
2021-05-25 11:42:08.740530,-1.327271
2021-05-25 11:42:08.756160,-1.848694
2021-05-25 11:42:08.771780,-1.772339
2021-05-25 11:42:08.787410,-1.082153
2021-05-25 11:42:08.803030,0.1709595
2021-05-25 11:42:08.818660,1.927734
2021-05-25 11:42:08.834290,4.178467
2021-05-25 11:42:08.849910,7.02179
2021-05-25 11:42:08.865540,10.67114
2021-05-25 11:42:08.881160,15.36401
2021-05-25 11:42:08.896790,21.21136
2021-05-25 11:42:08.912410,28.03772
2021-05-25 11:42:08.928040,35.29767
2021-05-25 11:42:08.943670,42.09778
2021-05-25 11:42:08.959290,47.34766
2021-05-25 11:42:08.974920,50.04102
2021-05-25 11:42:08.990540,49.5047
2021-05-25 11:42:09.006170,45.59015
2021-05-25 11:42:09.021790,38.75714
2021-05-25 11:42:09.037420,29.92798
2021-05-25 11:42:09.053050,20.31879
2021-05-25 11:42:09.068670,11.16473
2021-05-25 11:42:09.084300,3.409973
2021-05-25 11:42:09.099920,-2.527405
2021-05-25 11:42:09.115550,-6.777893
2021-05-25 11:42:09.131170,-9.880737
2021-05-25 11:42:09.146800,-12.4151
2021-05-25 11:42:09.162430,-14.62317
2021-05-25 11:42:09.178050,-16.28033
2021-05-25 11:42:09.193680,-16.89325
2021-05-25 11:42:09.209300,-16.00128
2021-05-25 11:42:09.224930,-13.51953
2021-05-25 11:42:09.240550,-9.822815
2021-05-25 11:42:09.256180,-5.637207
2021-05-25 11:42:09.271810,-1.818909
2021-05-25 11:42:09.287430,0.7799072
2021-05-25 11:42:09.303060,1.342896
2021-05-25 11:42:09.318680,-0.7999268
2021-05-25 11:42:09.334310,-5.911072
2021-05-25 11:42:09.349930,-13.43066
2021-05-25 11:42:09.365560,-21.81677
2021-05-25 11:42:09.381190,-28.86261
2021-05-25 11:42:09.396810,-32.51239
2021-05-25 11:42:09.412440,-31.82935
2021-05-25 11:42:09.428060,-27.4715
2021-05-25 11:42:09.443690,-21.37701
2021-05-25 11:42:09.459310,-15.80865
2021-05-25 11:42:09.474940,-12.31927
2021-05-25 11:42:09.490570,-11.29108
2021-05-25 11:42:09.506190,-12.2486
2021-05-25 11:42:09.521820,-14.57098
2021-05-25 11:42:09.537440,-18.06494
2021-05-25 11:42:09.553070,-22.96545
2021-05-25 11:42:09.568690,-29.43158
2021-05-25 11:42:09.584320,-37.03827
2021-05-25 11:42:09.599950,-44.61169
2021-05-25 11:42:09.615570,-50.63837
2021-05-25 11:42:09.631200,-53.92505
2021-05-25 11:42:09.646820,-54.22467
2021-05-25 11:42:09.662450,-52.28125
2021-05-25 11:42:09.678070,-49.4292
2021-05-25 11:42:09.693700,-47.02203
2021-05-25 11:42:09.709330,-45.85974
2021-05-25 11:42:09.724950,-45.98138
2021-05-25 11:42:09.740580,-46.73328
2021-05-25 11:42:09.756200,-47.17303
2021-05-25 11:42:09.771830,-46.51807
2021-05-25 11:42:09.787450,-44.5257
2021-05-25 11:42:09.803080,-41.61688
2021-05-25 11:42:09.818710,-38.66583
2021-05-25 11:42:09.834330,-36.62653
2021-05-25 11:42:09.849960,-36.01654
2021-05-25 11:42:09.865580,-36.75665
2021-05-25 11:42:09.881210,-38.24908
2021-05-25 11:42:09.896830,-39.7821
2021-05-25 11:42:09.912460,-40.90515
2021-05-25 11:42:09.928090,-41.5686
2021-05-25 11:42:09.943710,-41.90448
2021-05-25 11:42:09.959340,-41.79932
2021-05-25 11:42:09.974960,-40.65009
2021-05-25 11:42:09.990590,-37.43073
2021-05-25 11:42:10.006210,-31.24127
2021-05-25 11:42:10.021840,-21.86682
2021-05-25 11:42:10.037470,-10.11328
2021-05-25 11:42:10.053090,2.369446
2021-05-25 11:42:10.068720,13.7016
2021-05-25 11:42:10.084340,22.49982
2021-05-25 11:42:10.099970,28.30322
2021-05-25 11:42:10.115590,31.51569
2021-05-25 11:42:10.131220,32.98621
2021-05-25 11:42:10.146850,33.43024
2021-05-25 11:42:10.162470,33.17035
2021-05-25 11:42:10.178100,32.15906
2021-05-25 11:42:10.193720,30.25989
2021-05-25 11:42:10.209350,27.49384
2021-05-25 11:42:10.224970,24.10706
2021-05-25 11:42:10.240600,20.38708
2021-05-25 11:42:10.256230,16.51056
2021-05-25 11:42:10.271850,12.43433
2021-05-25 11:42:10.287480,7.992798
2021-05-25 11:42:10.303100,3.141602
2021-05-25 11:42:10.318730,-1.860474
2021-05-25 11:42:10.334350,-6.380554
2021-05-25 11:42:10.349980,-9.572815
2021-05-25 11:42:10.365610,-10.61499
2021-05-25 11:42:10.381230,-9.007996
2021-05-25 11:42:10.396860,-4.742432
2021-05-25 11:42:10.412480,1.666992
2021-05-25 11:42:10.428110,9.278503
2021-05-25 11:42:10.443730,16.96002
2021-05-25 11:42:10.459360,23.72949
2021-05-25 11:42:10.474990,29.01941
2021-05-25 11:42:10.490610,32.87579
2021-05-25 11:42:10.506240,35.90149
2021-05-25 11:42:10.521860,38.96613
2021-05-25 11:42:10.537490,42.83582
2021-05-25 11:42:10.553110,47.78247
2021-05-25 11:42:10.568740,53.40668
2021-05-25 11:42:10.584370,58.74823
2021-05-25 11:42:10.599990,62.65277
2021-05-25 11:42:10.615620,64.24347
2021-05-25 11:42:10.631240,63.23572
2021-05-25 11:42:10.646870,59.90823
2021-05-25 11:42:10.662490,54.7605
2021-05-25 11:42:10.678120,48.13083
2021-05-25 11:42:10.693750,40.0083
2021-05-25 11:42:10.709370,30.16644
2021-05-25 11:42:10.725000,18.53046
2021-05-25 11:42:10.740620,5.625275
2021-05-25 11:42:10.756250,-7.256653
2021-05-25 11:42:10.771870,-18.30936
2021-05-25 11:42:10.787500,-25.85226
2021-05-25 11:42:10.803130,-29.06146
2021-05-25 11:42:10.818750,-28.35788
2021-05-25 11:42:10.834380,-25.15121
2021-05-25 11:42:10.850000,-21.18295
2021-05-25 11:42:10.865630,-17.75244
2021-05-25 11:42:10.881250,-15.33603
2021-05-25 11:42:10.896880,-13.74783
2021-05-25 11:42:10.912510,-12.60605
2021-05-25 11:42:10.928130,-11.74448
2021-05-25 11:42:10.943760,-11.27631
2021-05-25 11:42:10.959380,-11.26352
2021-05-25 11:42:10.975010,-11.35489
2021-05-25 11:42:10.990630,-10.65872
2021-05-25 11:42:11.006260,-8.082458
2021-05-25 11:42:11.021890,-2.905945
2021-05-25 11:42:11.037510,4.739624
2021-05-25 11:42:11.053140,13.78171
2021-05-25 11:42:11.068760,22.70432
2021-05-25 11:42:11.084390,30.24213
2021-05-25 11:42:11.100010,35.86673
2021-05-25 11:42:11.115640,39.815
2021-05-25 11:42:11.131270,42.68854
2021-05-25 11:42:11.146890,44.87552
2021-05-25 11:42:11.162520,46.18481
2021-05-25 11:42:11.178140,45.99991
2021-05-25 11:42:11.193770,43.8555
2021-05-25 11:42:11.209390,40.12698
2021-05-25 11:42:11.225020,36.35175
2021-05-25 11:42:11.240650,34.90405
2021-05-25 11:42:11.256270,38.03317
2021-05-25 11:42:11.271900,46.68188
2021-05-25 11:42:11.287520,59.79858
2021-05-25 11:42:11.303150,74.45605
2021-05-25 11:42:11.318770,86.86603
2021-05-25 11:42:11.334400,93.772
2021-05-25 11:42:11.350030,93.51056
2021-05-25 11:42:11.365650,86.39044
2021-05-25 11:42:11.381280,74.22791
2021-05-25 11:42:11.396900,59.46582
2021-05-25 11:42:11.412530,44.32486
2021-05-25 11:42:11.428160,30.2919
2021-05-25 11:42:11.443780,17.97214
2021-05-25 11:42:11.459410,7.149353
2021-05-25 11:42:11.475030,-3.06134
