Datetime,value
BVP
2021-04-21 15:54:46.035640,20.62996
2021-04-21 15:54:46.051270,12.04856
2021-04-21 15:54:46.066900,2.728134
2021-04-21 15:54:46.082520,-6.918129
2021-04-21 15:54:46.098150,-16.40614
2021-04-21 15:54:46.113770,-25.28312
2021-04-21 15:54:46.129400,-33.29955
2021-04-21 15:54:46.145020,-40.45728
2021-04-21 15:54:46.160650,-47.07294
2021-04-21 15:54:46.176280,-53.6674
2021-04-21 15:54:46.191900,-60.78379
2021-04-21 15:54:46.207530,-68.70632
2021-04-21 15:54:46.223150,-77.16802
2021-04-21 15:54:46.238780,-85.23869
2021-04-21 15:54:46.254400,-91.49071
2021-04-21 15:54:46.270030,-94.35112
2021-04-21 15:54:46.285660,-92.70962
2021-04-21 15:54:46.301280,-86.34921
2021-04-21 15:54:46.316910,-76.05917
2021-04-21 15:54:46.332530,-63.42464
2021-04-21 15:54:46.348160,-50.27107
2021-04-21 15:54:46.363780,-38.11763
2021-04-21 15:54:46.379410,-27.82253
2021-04-21 15:54:46.395040,-19.58769
2021-04-21 15:54:46.410660,-13.16847
2021-04-21 15:54:46.426290,-8.21772
2021-04-21 15:54:46.441910,-4.518356
2021-04-21 15:54:46.457540,-2.011696
2021-04-21 15:54:46.473160,-0.6990356
2021-04-21 15:54:46.488790,-0.4619522
2021-04-21 15:54:46.504420,-0.9937057
2021-04-21 15:54:46.520040,-1.847755
2021-04-21 15:54:46.535670,-2.615074
2021-04-21 15:54:46.551290,-3.078812
2021-04-21 15:54:46.566920,-3.379784
2021-04-21 15:54:46.582540,-3.953781
2021-04-21 15:54:46.598170,-5.35334
2021-04-21 15:54:46.613800,-7.918724
2021-04-21 15:54:46.629420,-11.59654
2021-04-21 15:54:46.645050,-15.83648
2021-04-21 15:54:46.660670,-19.76401
2021-04-21 15:54:46.676300,-22.50407
2021-04-21 15:54:46.691920,-23.48125
2021-04-21 15:54:46.707550,-22.65752
2021-04-21 15:54:46.723180,-20.48712
2021-04-21 15:54:46.738800,-17.78371
2021-04-21 15:54:46.754430,-15.48682
2021-04-21 15:54:46.770050,-14.42065
2021-04-21 15:54:46.785680,-15.15646
2021-04-21 15:54:46.801300,-17.88132
2021-04-21 15:54:46.816930,-22.26065
2021-04-21 15:54:46.832560,-27.4088
2021-04-21 15:54:46.848180,-31.96475
2021-04-21 15:54:46.863810,-34.37036
2021-04-21 15:54:46.879430,-33.27289
2021-04-21 15:54:46.895060,-27.98398
2021-04-21 15:54:46.910680,-18.77029
2021-04-21 15:54:46.926310,-6.815765
2021-04-21 15:54:46.941940,6.074142
2021-04-21 15:54:46.957560,17.99739
2021-04-21 15:54:46.973190,27.43866
2021-04-21 15:54:46.988810,33.63344
2021-04-21 15:54:47.004440,36.65678
2021-04-21 15:54:47.020060,37.20918
2021-04-21 15:54:47.035690,36.30968
2021-04-21 15:54:47.051320,34.91898
2021-04-21 15:54:47.066940,33.69542
2021-04-21 15:54:47.082570,32.92242
2021-04-21 15:54:47.098190,32.61996
2021-04-21 15:54:47.113820,32.74339
2021-04-21 15:54:47.129440,33.32265
2021-04-21 15:54:47.145070,34.49039
2021-04-21 15:54:47.160700,36.38857
2021-04-21 15:54:47.191950,41.91296
2021-04-21 15:54:47.207570,44.64786
2021-04-21 15:54:47.223200,46.4823
2021-04-21 15:54:47.238820,46.7643
2021-04-21 15:54:47.254450,45.09799
2021-04-21 15:54:47.270080,41.33875
2021-04-21 15:54:47.285700,35.52528
2021-04-21 15:54:47.301330,27.73051
2021-04-21 15:54:47.316950,17.99887
2021-04-21 15:54:47.332580,6.317291
2021-04-21 15:54:47.348200,-7.249878
2021-04-21 15:54:47.363830,-22.46382
2021-04-21 15:54:47.379460,-38.90829
2021-04-21 15:54:47.395080,-55.92981
2021-04-21 15:54:47.410710,-72.66074
2021-04-21 15:54:47.426330,-87.91251
2021-04-21 15:54:47.441960,-100.1146
2021-04-21 15:54:47.457580,-107.386
2021-04-21 15:54:47.473210,-107.9197
2021-04-21 15:54:47.488840,-100.6064
2021-04-21 15:54:47.504460,-85.67004
2021-04-21 15:54:47.520090,-64.94122
2021-04-21 15:54:47.535710,-41.46603
2021-04-21 15:54:47.551340,-18.66827
2021-04-21 15:54:47.566960,0.6647949
2021-04-21 15:54:47.582590,14.95749
2021-04-21 15:54:47.598220,23.80765
2021-04-21 15:54:47.613840,27.44562
2021-04-21 15:54:47.629470,26.38062
2021-04-21 15:54:47.645090,21.34229
2021-04-21 15:54:47.660720,13.5289
2021-04-21 15:54:47.676340,4.83548
2021-04-21 15:54:47.691970,-2.378235
2021-04-21 15:54:47.707600,-5.9216
2021-04-21 15:54:47.723220,-4.463409
2021-04-21 15:54:47.738850,2.143341
2021-04-21 15:54:47.754470,13.15854
2021-04-21 15:54:47.770100,27.58521
2021-04-21 15:54:47.785730,44.69275
2021-04-21 15:54:47.801350,64.08011
2021-04-21 15:54:47.816980,85.27368
2021-04-21 15:54:47.832600,107.3394
2021-04-21 15:54:47.848230,128.8396
2021-04-21 15:54:47.863850,148.3524
2021-04-21 15:54:47.879480,165.0648
2021-04-21 15:54:47.895110,179.0776
2021-04-21 15:54:47.910730,191.0376
2021-04-21 15:54:47.926360,201.4163
2021-04-21 15:54:47.941980,209.8868
2021-04-21 15:54:47.957610,215.3033
2021-04-21 15:54:47.973230,216.255
2021-04-21 15:54:47.988860,211.794
2021-04-21 15:54:48.004490,202.002
2021-04-21 15:54:48.020110,188.0811
2021-04-21 15:54:48.035740,172.0452
2021-04-21 15:54:48.051360,156.0886
2021-04-21 15:54:48.066990,141.8655
2021-04-21 15:54:48.082610,129.9036
2021-04-21 15:54:48.098240,119.4198
2021-04-21 15:54:48.113870,108.5569
2021-04-21 15:54:48.129490,95.11472
2021-04-21 15:54:48.145120,77.46381
2021-04-21 15:54:48.160740,55.15776
2021-04-21 15:54:48.176370,29.04466
2021-04-21 15:54:48.191990,0.7603607
2021-04-21 15:54:48.207620,-28.09254
2021-04-21 15:54:48.223250,-56.45444
2021-04-21 15:54:48.238870,-83.8526
2021-04-21 15:54:48.254500,-109.8939
2021-04-21 15:54:48.270120,-133.7044
2021-04-21 15:54:48.285750,-153.8006
2021-04-21 15:54:48.317000,-177.0052
2021-04-21 15:54:48.332630,-179.243
2021-04-21 15:54:48.348250,-176.5838
2021-04-21 15:54:48.363880,-170.9335
2021-04-21 15:54:48.379500,-164.0753
2021-04-21 15:54:48.395130,-157.0974
2021-04-21 15:54:48.410750,-150.2711
2021-04-21 15:54:48.426380,-143.325
2021-04-21 15:54:48.442010,-135.9256
2021-04-21 15:54:48.457630,-128.0748
2021-04-21 15:54:48.473260,-120.2227
2021-04-21 15:54:48.488880,-113.0764
2021-04-21 15:54:48.504510,-107.2044
2021-04-21 15:54:48.520130,-102.7278
2021-04-21 15:54:48.535760,-99.29171
2021-04-21 15:54:48.551390,-96.29723
2021-04-21 15:54:48.567010,-93.32879
2021-04-21 15:54:48.582640,-90.44707
2021-04-21 15:54:48.598260,-88.16862
2021-04-21 15:54:48.613890,-87.07532
2021-04-21 15:54:48.629510,-87.25854
2021-04-21 15:54:48.645140,-87.99345
2021-04-21 15:54:48.660770,-87.75922
2021-04-21 15:54:48.676390,-84.79153
2021-04-21 15:54:48.692020,-77.85041
2021-04-21 15:54:48.707640,-66.73119
2021-04-21 15:54:48.723270,-52.45776
2021-04-21 15:54:48.738890,-36.83245
2021-04-21 15:54:48.754520,-21.77369
2021-04-21 15:54:48.770150,-8.68766
2021-04-21 15:54:48.785770,1.794601
2021-04-21 15:54:48.801400,9.651077
2021-04-21 15:54:48.817020,15.13279
2021-04-21 15:54:48.832650,18.43599
2021-04-21 15:54:48.848270,19.68352
2021-04-21 15:54:48.863900,19.03499
2021-04-21 15:54:48.879530,16.9377
2021-04-21 15:54:48.895150,14.1833
2021-04-21 15:54:48.910780,11.75851
2021-04-21 15:54:48.926400,10.50755
2021-04-21 15:54:48.942030,10.85349
2021-04-21 15:54:48.957650,12.62328
2021-04-21 15:54:48.973280,15.1953
2021-04-21 15:54:48.988910,17.74719
2021-04-21 15:54:49.004530,19.58914
2021-04-21 15:54:49.020160,20.40294
2021-04-21 15:54:49.035780,20.28827
2021-04-21 15:54:49.051410,19.63127
2021-04-21 15:54:49.067030,18.84494
2021-04-21 15:54:49.082660,18.15005
2021-04-21 15:54:49.098290,17.49368
2021-04-21 15:54:49.113910,16.56244
2021-04-21 15:54:49.129540,15.01929
2021-04-21 15:54:49.145160,12.62314
2021-04-21 15:54:49.160790,9.32991
2021-04-21 15:54:49.176410,5.347534
2021-04-21 15:54:49.192040,1.161835
2021-04-21 15:54:49.207670,-2.462524
2021-04-21 15:54:49.223290,-4.495239
2021-04-21 15:54:49.238920,-3.822998
2021-04-21 15:54:49.254540,0.4386139
2021-04-21 15:54:49.270170,8.579987
2021-04-21 15:54:49.285790,20.04869
2021-04-21 15:54:49.301420,33.51057
2021-04-21 15:54:49.317050,47.19699
2021-04-21 15:54:49.332670,59.4505
2021-04-21 15:54:49.348300,69.24896
2021-04-21 15:54:49.363920,76.40837
2021-04-21 15:54:49.379550,81.43324
2021-04-21 15:54:49.395170,85.11841
2021-04-21 15:54:49.410800,88.11052
2021-04-21 15:54:49.426430,90.61581
2021-04-21 15:54:49.442050,92.48392
2021-04-21 15:54:49.473300,93.2507
2021-04-21 15:54:49.488930,92.2074
2021-04-21 15:54:49.504550,90.74294
2021-04-21 15:54:49.520180,89.38393
2021-04-21 15:54:49.535810,88.45695
2021-04-21 15:54:49.551430,87.95514
2021-04-21 15:54:49.567060,87.57368
2021-04-21 15:54:49.582680,86.93941
2021-04-21 15:54:49.598310,85.78656
2021-04-21 15:54:49.613930,84.02774
2021-04-21 15:54:49.629560,81.63699
2021-04-21 15:54:49.645190,78.52223
2021-04-21 15:54:49.660810,74.39517
2021-04-21 15:54:49.676440,68.83836
2021-04-21 15:54:49.692060,61.4505
2021-04-21 15:54:49.707690,52.03442
2021-04-21 15:54:49.723310,40.73145
2021-04-21 15:54:49.738940,28.06531
2021-04-21 15:54:49.754570,14.894
2021-04-21 15:54:49.770190,2.25235
2021-04-21 15:54:49.785820,-8.851135
2021-04-21 15:54:49.801440,-17.61084
2021-04-21 15:54:49.817070,-23.54787
2021-04-21 15:54:49.832690,-26.49345
2021-04-21 15:54:49.848320,-26.54738
2021-04-21 15:54:49.863950,-24.015
2021-04-21 15:54:49.879570,-19.37817
2021-04-21 15:54:49.895200,-13.21651
2021-04-21 15:54:49.910820,-6.159889
2021-04-21 15:54:49.926450,1.229584
2021-04-21 15:54:49.942070,8.588188
2021-04-21 15:54:49.957700,15.73026
2021-04-21 15:54:49.973330,22.58833
2021-04-21 15:54:49.988950,29.10822
2021-04-21 15:54:50.004580,35.19238
2021-04-21 15:54:50.020200,40.83656
2021-04-21 15:54:50.035830,46.39819
2021-04-21 15:54:50.051460,52.66722
2021-04-21 15:54:50.067080,60.65236
2021-04-21 15:54:50.082710,71.07549
2021-04-21 15:54:50.098330,83.71225
2021-04-21 15:54:50.113960,97.21275
2021-04-21 15:54:50.129580,109.5155
2021-04-21 15:54:50.145210,118.806
2021-04-21 15:54:50.160840,124.5037
2021-04-21 15:54:50.176460,127.825
2021-04-21 15:54:50.192090,131.4113
2021-04-21 15:54:50.207710,138.0947
2021-04-21 15:54:50.223340,149.4545
2021-04-21 15:54:50.238960,164.6771
2021-04-21 15:54:50.254590,180.3938
2021-04-21 15:54:50.270220,191.6659
2021-04-21 15:54:50.285840,193.6444
2021-04-21 15:54:50.301470,183.0297
2021-04-21 15:54:50.317090,158.879
2021-04-21 15:54:50.332720,122.7467
2021-04-21 15:54:50.348340,78.32994
2021-04-21 15:54:50.363970,31.06509
2021-04-21 15:54:50.379600,-12.45294
2021-04-21 15:54:50.395220,-45.48523
2021-04-21 15:54:50.410850,-62.83179
2021-04-21 15:54:50.426470,-62.85217
2021-04-21 15:54:50.442100,-48.86023
2021-04-21 15:54:50.457720,-28.89655
2021-04-21 15:54:50.473350,-13.21683
2021-04-21 15:54:50.488980,-10.31848
2021-04-21 15:54:50.504600,-23.18002
2021-04-21 15:54:50.520230,-47.70886
2021-04-21 15:54:50.551480,-92.17197
2021-04-21 15:54:50.567100,-93.84738
2021-04-21 15:54:50.582730,-78.26227
2021-04-21 15:54:50.598360,-50.49774
2021-04-21 15:54:50.613980,-19.06073
2021-04-21 15:54:50.629610,7.904236
2021-04-21 15:54:50.645230,25.32776
2021-04-21 15:54:50.660860,31.75122
2021-04-21 15:54:50.676480,28.08423
2021-04-21 15:54:50.692110,15.84088
2021-04-21 15:54:50.707740,-3.94104
2021-04-21 15:54:50.723360,-30.17841
2021-04-21 15:54:50.738990,-60.5246
2021-04-21 15:54:50.754610,-90.67059
2021-04-21 15:54:50.770240,-115.1756
2021-04-21 15:54:50.785860,-129.5127
2021-04-21 15:54:50.801490,-132.4471
2021-04-21 15:54:50.817120,-127.0156
2021-04-21 15:54:50.832740,-119.3637
2021-04-21 15:54:50.848370,-115.9995
2021-04-21 15:54:50.863990,-120.7867
2021-04-21 15:54:50.879620,-133.4784
2021-04-21 15:54:50.895240,-150.3613
2021-04-21 15:54:50.910870,-166.5125
2021-04-21 15:54:50.926500,-178.3198
2021-04-21 15:54:50.942120,-184.9888
2021-04-21 15:54:50.957750,-188.2986
2021-04-21 15:54:50.973370,-191.1849
2021-04-21 15:54:50.989000,-196.0834
2021-04-21 15:54:51.004620,-203.743
2021-04-21 15:54:51.020250,-213.1342
2021-04-21 15:54:51.035880,-222.0768
2021-04-21 15:54:51.051500,-228.0949
2021-04-21 15:54:51.067130,-229.2245
2021-04-21 15:54:51.082750,-224.5438
2021-04-21 15:54:51.098380,-214.2385
2021-04-21 15:54:51.114000,-199.5789
2021-04-21 15:54:51.129630,-182.5483
2021-04-21 15:54:51.145260,-165.168
2021-04-21 15:54:51.160880,-148.849
2021-04-21 15:54:51.176510,-133.8444
2021-04-21 15:54:51.192130,-119.0847
2021-04-21 15:54:51.207760,-102.4688
2021-04-21 15:54:51.223380,-81.66699
2021-04-21 15:54:51.239010,-55.07318
2021-04-21 15:54:51.254640,-22.81171
2021-04-21 15:54:51.270260,12.69165
2021-04-21 15:54:51.285890,47.12628
2021-04-21 15:54:51.301510,75.43115
2021-04-21 15:54:51.317140,93.43787
2021-04-21 15:54:51.332760,99.21326
2021-04-21 15:54:51.348390,93.54388
2021-04-21 15:54:51.364020,79.33521
2021-04-21 15:54:51.379640,60.40143
2021-04-21 15:54:51.395270,40.24396
2021-04-21 15:54:51.410890,21.42004
2021-04-21 15:54:51.426520,5.645996
2021-04-21 15:54:51.442140,-5.845093
2021-04-21 15:54:51.457770,-12.10052
2021-04-21 15:54:51.473400,-12.70459
2021-04-21 15:54:51.489020,-8.245483
2021-04-21 15:54:51.504650,-0.5797729
2021-04-21 15:54:51.520270,7.624451
2021-04-21 15:54:51.535900,13.79077
2021-04-21 15:54:51.551520,16.3913
2021-04-21 15:54:51.567150,15.44373
2021-04-21 15:54:51.582780,12.34155
2021-04-21 15:54:51.598400,9.236938
2021-04-21 15:54:51.614030,8.224487
2021-04-21 15:54:51.629650,10.51331
2021-04-21 15:54:51.645280,16.00671
2021-04-21 15:54:51.660900,23.21631
2021-04-21 15:54:51.676530,29.81
2021-04-21 15:54:51.692160,33.54254
2021-04-21 15:54:51.707780,33.33002
2021-04-21 15:54:51.723410,29.83923
2021-04-21 15:54:51.754660,22.724
2021-04-21 15:54:51.770280,24.03644
2021-04-21 15:54:51.785910,29.67285
2021-04-21 15:54:51.801540,38.18097
2021-04-21 15:54:51.817160,47.04901
2021-04-21 15:54:51.832790,53.88898
2021-04-21 15:54:51.848410,57.33582
2021-04-21 15:54:51.864040,57.29602
2021-04-21 15:54:51.879660,54.5799
2021-04-21 15:54:51.895290,50.30585
2021-04-21 15:54:51.910920,45.41052
2021-04-21 15:54:51.926540,40.5733
2021-04-21 15:54:51.942170,36.24292
2021-04-21 15:54:51.957790,32.78326
2021-04-21 15:54:51.973420,30.4339
2021-04-21 15:54:51.989040,29.33582
2021-04-21 15:54:52.004670,29.35413
2021-04-21 15:54:52.020300,30.03998
2021-04-21 15:54:52.035920,30.66956
2021-04-21 15:54:52.051550,30.38135
2021-04-21 15:54:52.067170,28.38715
2021-04-21 15:54:52.082800,24.26605
2021-04-21 15:54:52.098420,18.16846
2021-04-21 15:54:52.114050,10.78064
2021-04-21 15:54:52.129680,3.085205
2021-04-21 15:54:52.145300,-4.049988
2021-04-21 15:54:52.160930,-10.20294
2021-04-21 15:54:52.176550,-15.52502
2021-04-21 15:54:52.192180,-20.57428
2021-04-21 15:54:52.207800,-25.99548
2021-04-21 15:54:52.223430,-32.21686
2021-04-21 15:54:52.239060,-39.18921
2021-04-21 15:54:52.254680,-46.53357
2021-04-21 15:54:52.270310,-53.57684
2021-04-21 15:54:52.285930,-59.5755
2021-04-21 15:54:52.301560,-63.98169
2021-04-21 15:54:52.317180,-66.5907
2021-04-21 15:54:52.332810,-67.69879
2021-04-21 15:54:52.348440,-68.16394
2021-04-21 15:54:52.364060,-69.21002
2021-04-21 15:54:52.379690,-71.96198
2021-04-21 15:54:52.395310,-76.9303
2021-04-21 15:54:52.410940,-83.51904
2021-04-21 15:54:52.426560,-89.99493
2021-04-21 15:54:52.442190,-93.88647
2021-04-21 15:54:52.457820,-92.74847
2021-04-21 15:54:52.473440,-84.94415
2021-04-21 15:54:52.489070,-70.21021
2021-04-21 15:54:52.504690,-49.59698
2021-04-21 15:54:52.520320,-25.08954
2021-04-21 15:54:52.535940,0.9866333
2021-04-21 15:54:52.551570,26.51031
2021-04-21 15:54:52.567200,49.79944
2021-04-21 15:54:52.582820,69.59906
2021-04-21 15:54:52.598450,85.09296
2021-04-21 15:54:52.614070,95.92548
2021-04-21 15:54:52.629700,102.2744
2021-04-21 15:54:52.645330,104.8669
2021-04-21 15:54:52.660950,104.8698
2021-04-21 15:54:52.676580,103.5023
2021-04-21 15:54:52.692200,101.7252
2021-04-21 15:54:52.707830,99.97955
2021-04-21 15:54:52.723450,98.2298
2021-04-21 15:54:52.739080,96.20575
2021-04-21 15:54:52.754710,93.6557
2021-04-21 15:54:52.770330,90.47467
2021-04-21 15:54:52.785960,86.71332
2021-04-21 15:54:52.817210,77.78021
2021-04-21 15:54:52.832830,72.72693
2021-04-21 15:54:52.848460,67.37988
2021-04-21 15:54:52.864090,61.81677
2021-04-21 15:54:52.879710,56.1272
2021-04-21 15:54:52.895340,50.29181
2021-04-21 15:54:52.910960,44.24762
2021-04-21 15:54:52.926590,37.87738
2021-04-21 15:54:52.942210,31.12616
2021-04-21 15:54:52.957840,24.07977
2021-04-21 15:54:52.973470,17.00824
2021-04-21 15:54:52.989090,10.32275
2021-04-21 15:54:53.004720,4.46759
2021-04-21 15:54:53.020340,-0.2269897
2021-04-21 15:54:53.035970,-3.697205
2021-04-21 15:54:53.051590,-6.289795
2021-04-21 15:54:53.067220,-8.798584
2021-04-21 15:54:53.082850,-12.34894
2021-04-21 15:54:53.098470,-18.04626
2021-04-21 15:54:53.114100,-26.59003
2021-04-21 15:54:53.129720,-37.94629
2021-04-21 15:54:53.145350,-51.26752
2021-04-21 15:54:53.160970,-65.06036
2021-04-21 15:54:53.176600,-77.59375
2021-04-21 15:54:53.192230,-87.26489
2021-04-21 15:54:53.207850,-92.94696
2021-04-21 15:54:53.223480,-94.16003
2021-04-21 15:54:53.239100,-91.10034
2021-04-21 15:54:53.254730,-84.6377
2021-04-21 15:54:53.270350,-76.11005
2021-04-21 15:54:53.285980,-67.05792
2021-04-21 15:54:53.301610,-58.8092
2021-04-21 15:54:53.317230,-52.12201
2021-04-21 15:54:53.332860,-46.9707
2021-04-21 15:54:53.348480,-42.66443
2021-04-21 15:54:53.364110,-38.21429
2021-04-21 15:54:53.379730,-32.80865
2021-04-21 15:54:53.395360,-26.13342
2021-04-21 15:54:53.410990,-18.43201
2021-04-21 15:54:53.426610,-10.28302
2021-04-21 15:54:53.442240,-2.341492
2021-04-21 15:54:53.457860,4.907104
2021-04-21 15:54:53.473490,11.18823
2021-04-21 15:54:53.489110,16.41174
2021-04-21 15:54:53.504740,20.51721
2021-04-21 15:54:53.520370,23.43622
2021-04-21 15:54:53.535990,25.11572
2021-04-21 15:54:53.551620,25.53143
2021-04-21 15:54:53.567240,24.74792
2021-04-21 15:54:53.582870,22.96521
2021-04-21 15:54:53.598490,20.52142
2021-04-21 15:54:53.614120,17.84259
2021-04-21 15:54:53.629750,15.36572
2021-04-21 15:54:53.645370,13.3974
2021-04-21 15:54:53.661000,11.96411
2021-04-21 15:54:53.676620,10.78412
2021-04-21 15:54:53.692250,9.295471
2021-04-21 15:54:53.707870,6.895447
2021-04-21 15:54:53.723500,3.196411
2021-04-21 15:54:53.739130,-1.772766
2021-04-21 15:54:53.754750,-7.578491
2021-04-21 15:54:53.770380,-13.4928
2021-04-21 15:54:53.786000,-18.78949
2021-04-21 15:54:53.801630,-22.92175
2021-04-21 15:54:53.817250,-25.59894
2021-04-21 15:54:53.832880,-26.79425
2021-04-21 15:54:53.848510,-26.66766
2021-04-21 15:54:53.864130,-25.55023
2021-04-21 15:54:53.879760,-23.95715
2021-04-21 15:54:53.895380,-22.55823
2021-04-21 15:54:53.911010,-22.06549
2021-04-21 15:54:53.926630,-22.96588
2021-04-21 15:54:53.942260,-25.30005
2021-04-21 15:54:53.957890,-28.39758
2021-04-21 15:54:53.973510,-30.95117
2021-04-21 15:54:53.989140,-31.30902
2021-04-21 15:54:54.020390,-20.5542
2021-04-21 15:54:54.036010,-9.245728
2021-04-21 15:54:54.051640,4.450073
2021-04-21 15:54:54.067270,18.59491
2021-04-21 15:54:54.082890,31.37946
2021-04-21 15:54:54.098520,41.62372
2021-04-21 15:54:54.114140,48.95178
2021-04-21 15:54:54.129770,53.64453
2021-04-21 15:54:54.145390,56.2323
2021-04-21 15:54:54.161020,57.1626
2021-04-21 15:54:54.176650,56.69025
2021-04-21 15:54:54.192270,54.98163
2021-04-21 15:54:54.207900,52.38196
2021-04-21 15:54:54.223520,49.53674
2021-04-21 15:54:54.239150,47.24689
2021-04-21 15:54:54.254770,46.216
2021-04-21 15:54:54.270400,46.69794
2021-04-21 15:54:54.286030,48.34674
2021-04-21 15:54:54.301650,50.36499
2021-04-21 15:54:54.317280,51.85614
2021-04-21 15:54:54.332900,52.12152
2021-04-21 15:54:54.348530,50.90088
2021-04-21 15:54:54.364150,48.26978
2021-04-21 15:54:54.379780,44.45508
2021-04-21 15:54:54.395410,39.68073
2021-04-21 15:54:54.411030,34.12128
2021-04-21 15:54:54.426660,27.97766
2021-04-21 15:54:54.442280,21.42468
2021-04-21 15:54:54.457910,14.43988
2021-04-21 15:54:54.473530,6.679382
2021-04-21 15:54:54.489160,-2.432068
2021-04-21 15:54:54.504790,-13.34644
2021-04-21 15:54:54.520410,-25.94464
2021-04-21 15:54:54.536040,-39.32947
2021-04-21 15:54:54.551660,-52.06586
2021-04-21 15:54:54.567290,-62.80139
2021-04-21 15:54:54.582910,-70.86139
2021-04-21 15:54:54.598540,-76.50586
2021-04-21 15:54:54.614170,-80.64844
2021-04-21 15:54:54.629790,-84.26147
2021-04-21 15:54:54.645420,-87.8963
2021-04-21 15:54:54.661040,-91.44067
2021-04-21 15:54:54.676670,-94.33875
2021-04-21 15:54:54.692290,-95.89685
2021-04-21 15:54:54.707920,-95.5271
2021-04-21 15:54:54.723550,-92.72534
2021-04-21 15:54:54.739170,-87.0874
2021-04-21 15:54:54.754800,-78.28217
2021-04-21 15:54:54.770420,-66.20026
2021-04-21 15:54:54.786050,-51.12555
2021-04-21 15:54:54.801670,-33.76508
2021-04-21 15:54:54.817300,-15.11102
2021-04-21 15:54:54.832930,3.642212
2021-04-21 15:54:54.848550,21.22748
2021-04-21 15:54:54.864180,36.31738
2021-04-21 15:54:54.879800,47.60065
2021-04-21 15:54:54.895430,54.07086
2021-04-21 15:54:54.911060,55.38708
2021-04-21 15:54:54.926680,52.2085
2021-04-21 15:54:54.942310,46.17786
2021-04-21 15:54:54.957930,39.51886
2021-04-21 15:54:54.973560,34.30981
2021-04-21 15:54:54.989180,31.79236
2021-04-21 15:54:55.004810,32.03223
2021-04-21 15:54:55.020440,33.98071
2021-04-21 15:54:55.036060,35.92853
2021-04-21 15:54:55.051690,36.12848
2021-04-21 15:54:55.067310,33.31561
2021-04-21 15:54:55.082940,27.11462
2021-04-21 15:54:55.098560,18.16229
2021-04-21 15:54:55.114190,8.122803
2021-04-21 15:54:55.129820,-0.5568237
2021-04-21 15:54:55.145440,-5.137939
2021-04-21 15:54:55.161070,-3.243225
2021-04-21 15:54:55.176690,6.569519
2021-04-21 15:54:55.192320,24.43042
2021-04-21 15:54:55.207940,49.13385
2021-04-21 15:54:55.223570,78.31403
2021-04-21 15:54:55.239200,108.7785
2021-04-21 15:54:55.254820,136.8262
2021-04-21 15:54:55.270450,158.6795
2021-04-21 15:54:55.286070,171.0341
2021-04-21 15:54:55.301700,171.6495
2021-04-21 15:54:55.317320,159.8123
2021-04-21 15:54:55.332950,136.4528
2021-04-21 15:54:55.348580,103.8376
2021-04-21 15:54:55.364200,65.17987
2021-04-21 15:54:55.379830,24.14209
2021-04-21 15:54:55.395450,-15.54742
2021-04-21 15:54:55.411080,-50.43719
2021-04-21 15:54:55.426700,-77.67316
2021-04-21 15:54:55.442330,-95.38263
2021-04-21 15:54:55.457960,-102.9423
2021-04-21 15:54:55.473580,-101.0541
2021-04-21 15:54:55.489210,-91.43671
2021-04-21 15:54:55.504830,-76.35413
2021-04-21 15:54:55.520460,-58.13696
2021-04-21 15:54:55.536080,-38.94141
2021-04-21 15:54:55.551710,-20.62262
2021-04-21 15:54:55.567340,-4.82312
2021-04-21 15:54:55.582960,7.1474
2021-04-21 15:54:55.598590,14.42993
2021-04-21 15:54:55.614210,16.78845
2021-04-21 15:54:55.629840,14.59277
2021-04-21 15:54:55.645460,8.540894
2021-04-21 15:54:55.661090,-0.5835571
2021-04-21 15:54:55.676720,-12.0481
2021-04-21 15:54:55.692340,-25.15277
2021-04-21 15:54:55.707970,-39.01385
2021-04-21 15:54:55.723590,-52.60681
2021-04-21 15:54:55.739220,-64.79865
2021-04-21 15:54:55.754840,-74.64349
2021-04-21 15:54:55.770470,-81.67371
2021-04-21 15:54:55.786100,-86.12189
2021-04-21 15:54:55.801720,-88.85828
2021-04-21 15:54:55.817350,-91.16949
2021-04-21 15:54:55.832970,-94.26392
2021-04-21 15:54:55.848600,-98.81183
2021-04-21 15:54:55.864220,-104.6281
2021-04-21 15:54:55.879850,-110.5743
2021-04-21 15:54:55.895480,-114.8625
2021-04-21 15:54:55.911100,-115.6545
2021-04-21 15:54:55.926730,-111.6887
2021-04-21 15:54:55.942350,-102.72
2021-04-21 15:54:55.957980,-89.64899
2021-04-21 15:54:55.973600,-74.27814
2021-04-21 15:54:55.989230,-58.8111
2021-04-21 15:54:56.004860,-45.36987
2021-04-21 15:54:56.020480,-35.65491
2021-04-21 15:54:56.036110,-30.63855
2021-04-21 15:54:56.051730,-30.42194
2021-04-21 15:54:56.067360,-34.10718
2021-04-21 15:54:56.082980,-39.90503
2021-04-21 15:54:56.098610,-45.55487
2021-04-21 15:54:56.114240,-49.02887
2021-04-21 15:54:56.129860,-49.25623
2021-04-21 15:54:56.145490,-46.62347
2021-04-21 15:54:56.161110,-42.81769
2021-04-21 15:54:56.176740,-40.04706
2021-04-21 15:54:56.192360,-40.13751
2021-04-21 15:54:56.207990,-43.76288
2021-04-21 15:54:56.223620,-50.38953
2021-04-21 15:54:56.239240,-58.70337
2021-04-21 15:54:56.254870,-67.30615
2021-04-21 15:54:56.270490,-75.20636
2021-04-21 15:54:56.286120,-81.7677
2021-04-21 15:54:56.301740,-86.39325
2021-04-21 15:54:56.317370,-88.15778
2021-04-21 15:54:56.348620,-78.55176
2021-04-21 15:54:56.364250,-65.75165
2021-04-21 15:54:56.379870,-47.96985
2021-04-21 15:54:56.395500,-26.29895
2021-04-21 15:54:56.411120,-1.829468
2021-04-21 15:54:56.426750,24.84167
2021-04-21 15:54:56.442380,53.74249
2021-04-21 15:54:56.458000,84.97546
2021-04-21 15:54:56.473630,117.9424
2021-04-21 15:54:56.489250,150.734
2021-04-21 15:54:56.504880,180.2025
2021-04-21 15:54:56.520500,202.7512
2021-04-21 15:54:56.536130,215.6338
2021-04-21 15:54:56.551760,218.044
2021-04-21 15:54:56.567380,211.5876
2021-04-21 15:54:56.583010,199.757
2021-04-21 15:54:56.598630,186.7835
2021-04-21 15:54:56.614260,176.1562
2021-04-21 15:54:56.629880,169.5469
2021-04-21 15:54:56.645510,166.4901
2021-04-21 15:54:56.661140,164.8365
2021-04-21 15:54:56.676760,161.821
2021-04-21 15:54:56.692390,155.1171
2021-04-21 15:54:56.708010,143.558
2021-04-21 15:54:56.723640,127.1573
2021-04-21 15:54:56.739260,106.7906
2021-04-21 15:54:56.754890,83.67755
2021-04-21 15:54:56.770520,58.97455
2021-04-21 15:54:56.786140,33.69775
2021-04-21 15:54:56.801770,8.836426
2021-04-21 15:54:56.817390,-14.5022
2021-04-21 15:54:56.833020,-35.15662
2021-04-21 15:54:56.848640,-52.13464
2021-04-21 15:54:56.864270,-64.78601
2021-04-21 15:54:56.879900,-72.88251
2021-04-21 15:54:56.895520,-76.51202
2021-04-21 15:54:56.911150,-75.89825
2021-04-21 15:54:56.926770,-71.45587
2021-04-21 15:54:56.942400,-63.92841
2021-04-21 15:54:56.958020,-54.41565
2021-04-21 15:54:56.973650,-44.23395
2021-04-21 15:54:56.989280,-34.448
2021-04-21 15:54:57.004900,-25.49084
2021-04-21 15:54:57.020530,-17.0481
2021-04-21 15:54:57.036150,-8.509583
2021-04-21 15:54:57.051780,0.4575806
2021-04-21 15:54:57.067400,9.420166
2021-04-21 15:54:57.083030,17.2522
2021-04-21 15:54:57.098660,22.69604
2021-04-21 15:54:57.114280,25.12921
2021-04-21 15:54:57.129910,24.94214
2021-04-21 15:54:57.145530,23.4989
2021-04-21 15:54:57.161160,22.51862
2021-04-21 15:54:57.176780,23.38763
2021-04-21 15:54:57.192410,26.68915
2021-04-21 15:54:57.208040,32.17255
2021-04-21 15:54:57.223660,38.8772
2021-04-21 15:54:57.239290,45.48126
2021-04-21 15:54:57.254910,50.64795
2021-04-21 15:54:57.270540,53.29083
2021-04-21 15:54:57.286170,52.84656
2021-04-21 15:54:57.301790,49.45428
2021-04-21 15:54:57.317420,43.90002
2021-04-21 15:54:57.333040,37.42841
2021-04-21 15:54:57.348670,31.3208
2021-04-21 15:54:57.364290,26.5813
2021-04-21 15:54:57.379920,23.63147
2021-04-21 15:54:57.395550,22.3269
2021-04-21 15:54:57.411170,22.133
2021-04-21 15:54:57.426800,22.42462
2021-04-21 15:54:57.442420,22.65845
2021-04-21 15:54:57.458050,22.47156
2021-04-21 15:54:57.473670,21.5849
2021-04-21 15:54:57.489300,19.72424
2021-04-21 15:54:57.504930,16.44745
2021-04-21 15:54:57.520550,11.24097
2021-04-21 15:54:57.536180,3.608398
2021-04-21 15:54:57.551800,-6.751648
2021-04-21 15:54:57.567430,-19.74603
2021-04-21 15:54:57.583050,-34.88379
2021-04-21 15:54:57.598680,-51.17279
2021-04-21 15:54:57.614310,-67.17578
2021-04-21 15:54:57.629930,-81.16425
2021-04-21 15:54:57.645560,-91.39136
2021-04-21 15:54:57.661180,-96.47064
2021-04-21 15:54:57.676810,-95.82935
2021-04-21 15:54:57.692430,-90.07745
2021-04-21 15:54:57.708060,-80.84204
2021-04-21 15:54:57.723690,-70.39386
2021-04-21 15:54:57.739310,-60.87543
2021-04-21 15:54:57.754940,-53.69928
2021-04-21 15:54:57.770560,-49.16846
2021-04-21 15:54:57.786190,-46.57013
2021-04-21 15:54:57.801810,-44.54254
2021-04-21 15:54:57.817440,-41.6059
2021-04-21 15:54:57.833070,-36.6322
2021-04-21 15:54:57.848690,-29.08539
2021-04-21 15:54:57.864320,-19.1438
2021-04-21 15:54:57.879940,-7.552551
2021-04-21 15:54:57.895570,4.51532
2021-04-21 15:54:57.911190,15.69629
2021-04-21 15:54:57.926820,24.71613
2021-04-21 15:54:57.942450,30.67456
2021-04-21 15:54:57.958070,33.21863
2021-04-21 15:54:57.973700,32.68768
2021-04-21 15:54:57.989320,29.95233
2021-04-21 15:54:58.004950,26.21149
2021-04-21 15:54:58.020570,22.61353
2021-04-21 15:54:58.036200,19.91632
2021-04-21 15:54:58.051830,18.35529
2021-04-21 15:54:58.067450,17.66022
2021-04-21 15:54:58.083080,17.23456
2021-04-21 15:54:58.098700,16.54803
2021-04-21 15:54:58.114330,15.31348
2021-04-21 15:54:58.129950,13.55463
2021-04-21 15:54:58.145580,11.37738
2021-04-21 15:54:58.161210,8.810974
2021-04-21 15:54:58.176830,5.749146
2021-04-21 15:54:58.192460,1.964722
2021-04-21 15:54:58.208080,-2.640564
2021-04-21 15:54:58.223710,-7.807434
2021-04-21 15:54:58.239330,-12.89905
2021-04-21 15:54:58.254960,-17.06415
2021-04-21 15:54:58.270590,-19.56787
2021-04-21 15:54:58.286210,-20.03943
2021-04-21 15:54:58.301840,-18.57648
2021-04-21 15:54:58.317460,-15.48285
2021-04-21 15:54:58.333090,-11.08533
2021-04-21 15:54:58.348710,-5.492188
2021-04-21 15:54:58.364340,1.296936
2021-04-21 15:54:58.379970,9.198486
2021-04-21 15:54:58.395590,17.76086
2021-04-21 15:54:58.411220,26.12952
2021-04-21 15:54:58.442470,38.10858
2021-04-21 15:54:58.458090,40.35114
2021-04-21 15:54:58.473720,40.16321
2021-04-21 15:54:58.489350,38.28015
2021-04-21 15:54:58.504970,35.71899
2021-04-21 15:54:58.520600,33.49957
2021-04-21 15:54:58.536220,32.47937
2021-04-21 15:54:58.551850,33.20001
2021-04-21 15:54:58.567470,35.85284
2021-04-21 15:54:58.583100,40.14148
2021-04-21 15:54:58.598730,45.40839
2021-04-21 15:54:58.614350,50.71057
2021-04-21 15:54:58.629980,55.17114
2021-04-21 15:54:58.645600,58.1991
2021-04-21 15:54:58.661230,59.68457
2021-04-21 15:54:58.676850,59.97101
2021-04-21 15:54:58.692480,59.63739
2021-04-21 15:54:58.708110,59.32294
2021-04-21 15:54:58.723730,59.52094
2021-04-21 15:54:58.739360,60.53955
2021-04-21 15:54:58.754980,62.36725
2021-04-21 15:54:58.770610,64.64166
2021-04-21 15:54:58.786230,66.5835
2021-04-21 15:54:58.801860,67.07397
2021-04-21 15:54:58.817490,64.96637
2021-04-21 15:54:58.833110,59.54657
2021-04-21 15:54:58.848740,50.88739
2021-04-21 15:54:58.864360,40.06915
2021-04-21 15:54:58.879990,28.74731
2021-04-21 15:54:58.895610,18.64001
2021-04-21 15:54:58.911240,10.73065
2021-04-21 15:54:58.926870,4.908081
2021-04-21 15:54:58.942490,-0.04870605
2021-04-21 15:54:58.958120,-5.789551
2021-04-21 15:54:58.973740,-13.58618
2021-04-21 15:54:58.989370,-23.54553
2021-04-21 15:54:59.004990,-34.3634
2021-04-21 15:54:59.020620,-43.56152
2021-04-21 15:54:59.036250,-48.39343
2021-04-21 15:54:59.051870,-46.6593
2021-04-21 15:54:59.067500,-37.48792
2021-04-21 15:54:59.083120,-21.36084
2021-04-21 15:54:59.098750,0.1789551
2021-04-21 15:54:59.114370,25.34204
2021-04-21 15:54:59.130000,52.67273
2021-04-21 15:54:59.145630,81.28845
2021-04-21 15:54:59.161250,110.6476
2021-04-21 15:54:59.176880,140.067
2021-04-21 15:54:59.192500,168.0811
2021-04-21 15:54:59.208130,192.3816
2021-04-21 15:54:59.223750,210.1947
2021-04-21 15:54:59.239380,219.1438
2021-04-21 15:54:59.255010,218.1449
2021-04-21 15:54:59.270630,207.9037
2021-04-21 15:54:59.286260,190.6016
2021-04-21 15:54:59.301880,169.1211
2021-04-21 15:54:59.317510,145.9165
2021-04-21 15:54:59.333130,122.3151
2021-04-21 15:54:59.348760,98.32813
2021-04-21 15:54:59.364390,73.16858
2021-04-21 15:54:59.380010,45.91968
2021-04-21 15:54:59.395640,16.17004
2021-04-21 15:54:59.411260,-15.72595
2021-04-21 15:54:59.426890,-48.78088
2021-04-21 15:54:59.442510,-81.64893
2021-04-21 15:54:59.458140,-112.8397
2021-04-21 15:54:59.473770,-140.9482
2021-04-21 15:54:59.489390,-164.7335
2021-04-21 15:54:59.505020,-183.2988
2021-04-21 15:54:59.520640,-196.3948
2021-04-21 15:54:59.536270,-204.556
2021-04-21 15:54:59.551890,-209.2339
2021-04-21 15:54:59.567520,-212.5669
2021-04-21 15:54:59.583150,-216.9341
2021-04-21 15:54:59.598770,-224.2666
2021-04-21 15:54:59.614400,-235.1819
2021-04-21 15:54:59.630020,-248.4197
2021-04-21 15:54:59.645650,-260.8217
2021-04-21 15:54:59.661270,-268.1488
2021-04-21 15:54:59.676900,-266.462
2021-04-21 15:54:59.692530,-253.6063
2021-04-21 15:54:59.708150,-230.1887
2021-04-21 15:54:59.723780,-199.4606
2021-04-21 15:54:59.739400,-166.3231
2021-04-21 15:54:59.755030,-135.8514
2021-04-21 15:54:59.770660,-112.0214
2021-04-21 15:54:59.786280,-97.1355
2021-04-21 15:54:59.801910,-91.99402
2021-04-21 15:54:59.817530,-96.31848
2021-04-21 15:54:59.833160,-109.1443
2021-04-21 15:54:59.848780,-128.5488
2021-04-21 15:54:59.864410,-151.4202
2021-04-21 15:54:59.880040,-173.3743
2021-04-21 15:54:59.895660,-189.5107
2021-04-21 15:54:59.911290,-195.4968
2021-04-21 15:54:59.926910,-189.0968
2021-04-21 15:54:59.942540,-170.7601
2021-04-21 15:54:59.958160,-143.5187
2021-04-21 15:54:59.973790,-111.8799
2021-04-21 15:54:59.989420,-80.2478
2021-04-21 15:55:00.005040,-51.61536
2021-04-21 15:55:00.020670,-27.06592
2021-04-21 15:55:00.036290,-6.062622
2021-04-21 15:55:00.051920,12.7113
2021-04-21 15:55:00.067540,30.49268
2021-04-21 15:55:00.083170,47.84998
2021-04-21 15:55:00.098800,64.67554
2021-04-21 15:55:00.114420,80.41321
2021-04-21 15:55:00.130050,94.422
2021-04-21 15:55:00.145670,106.1804
2021-04-21 15:55:00.161300,115.3254
2021-04-21 15:55:00.176920,121.4797
2021-04-21 15:55:00.192550,124.1858
2021-04-21 15:55:00.208180,122.9215
2021-04-21 15:55:00.223800,117.3268
2021-04-21 15:55:00.239430,107.5874
2021-04-21 15:55:00.255050,94.50366
2021-04-21 15:55:00.270680,79.40234
2021-04-21 15:55:00.286300,63.67175
2021-04-21 15:55:00.301930,48.18335
2021-04-21 15:55:00.317560,33.12244
2021-04-21 15:55:00.333180,18.02942
2021-04-21 15:55:00.348810,2.454956
2021-04-21 15:55:00.364430,-13.47327
2021-04-21 15:55:00.380060,-28.65906
2021-04-21 15:55:00.395680,-41.3468
2021-04-21 15:55:00.411310,-49.7489
2021-04-21 15:55:00.426940,-52.95288
2021-04-21 15:55:00.442560,-51.36328
2021-04-21 15:55:00.458190,-46.67126
2021-04-21 15:55:00.473810,-41.13757
2021-04-21 15:55:00.489440,-36.79529
2021-04-21 15:55:00.505060,-34.74756
2021-04-21 15:55:00.520690,-34.97803
2021-04-21 15:55:00.536320,-36.66614
2021-04-21 15:55:00.551940,-38.79468
2021-04-21 15:55:00.567570,-40.58948
2021-04-21 15:55:00.583190,-41.82056
2021-04-21 15:55:00.598820,-42.62646
2021-04-21 15:55:00.614440,-43.36938
2021-04-21 15:55:00.630070,-44.43079
2021-04-21 15:55:00.645700,-46.26843
2021-04-21 15:55:00.676950,-54.48022
2021-04-21 15:55:00.692570,-61.82983
2021-04-21 15:55:00.708200,-71.13757
2021-04-21 15:55:00.723820,-81.17493
2021-04-21 15:55:00.739450,-89.78491
2021-04-21 15:55:00.755080,-94.41687
2021-04-21 15:55:00.770700,-92.98462
2021-04-21 15:55:00.786330,-84.76184
2021-04-21 15:55:00.801950,-70.8158
2021-04-21 15:55:00.817580,-53.90942
2021-04-21 15:55:00.833200,-37.77686
2021-04-21 15:55:00.848830,-25.96228
2021-04-21 15:55:00.864460,-20.78149
2021-04-21 15:55:00.880080,-22.55933
2021-04-21 15:55:00.895710,-29.64502
2021-04-21 15:55:00.911330,-38.9729
2021-04-21 15:55:00.926960,-47.15613
2021-04-21 15:55:00.942580,-51.60767
2021-04-21 15:55:00.958210,-51.31067
2021-04-21 15:55:00.973840,-46.92236
2021-04-21 15:55:00.989460,-40.22424
2021-04-21 15:55:01.005090,-33.43311
2021-04-21 15:55:01.020710,-28.36047
2021-04-21 15:55:01.036340,-26.1156
2021-04-21 15:55:01.051960,-26.96375
2021-04-21 15:55:01.067590,-30.53625
2021-04-21 15:55:01.083220,-36.05292
2021-04-21 15:55:01.098840,-42.59308
2021-04-21 15:55:01.114470,-49.24829
2021-04-21 15:55:01.130090,-55.32227
2021-04-21 15:55:01.145720,-60.53748
2021-04-21 15:55:01.161340,-65.0954
2021-04-21 15:55:01.176970,-69.54443
2021-04-21 15:55:01.192600,-74.41406
2021-04-21 15:55:01.208220,-79.72156
2021-04-21 15:55:01.223850,-84.59607
2021-04-21 15:55:01.239470,-87.29102
2021-04-21 15:55:01.255100,-85.7464
2021-04-21 15:55:01.270720,-78.2691
2021-04-21 15:55:01.286350,-64.40161
2021-04-21 15:55:01.301980,-45.23029
2021-04-21 15:55:01.317600,-23.08893
2021-04-21 15:55:01.333230,-0.7269287
2021-04-21 15:55:01.348850,19.85931
2021-04-21 15:55:01.364480,38.19836
2021-04-21 15:55:01.380100,55.45544
2021-04-21 15:55:01.395730,73.71545
2021-04-21 15:55:01.411360,94.96558
2021-04-21 15:55:01.426980,120.0692
2021-04-21 15:55:01.442610,148.2986
2021-04-21 15:55:01.458230,177.4626
2021-04-21 15:55:01.473860,204.4407
2021-04-21 15:55:01.489480,225.8997
2021-04-21 15:55:01.505110,239.1
2021-04-21 15:55:01.520740,242.6999
2021-04-21 15:55:01.536360,237.5222
2021-04-21 15:55:01.551990,226.6938
2021-04-21 15:55:01.567610,215.0981
2021-04-21 15:55:01.583240,207.6828
2021-04-21 15:55:01.598860,207.3781
2021-04-21 15:55:01.614490,213.4551
2021-04-21 15:55:01.630120,221.3561
2021-04-21 15:55:01.645740,224.4928
2021-04-21 15:55:01.661370,216.7591
2021-04-21 15:55:01.676990,195.1827
2021-04-21 15:55:01.692620,160.6875
2021-04-21 15:55:01.708240,117.2849
2021-04-21 15:55:01.723870,70.23743
2021-04-21 15:55:01.739500,24.58838
2021-04-21 15:55:01.755120,-15.49567
2021-04-21 15:55:01.770750,-46.59012
2021-04-21 15:55:01.786370,-65.93588
2021-04-21 15:55:01.802000,-71.92853
2021-04-21 15:55:01.817620,-64.85876
2021-04-21 15:55:01.833250,-47.46143
2021-04-21 15:55:01.848880,-24.43741
2021-04-21 15:55:01.864500,-1.041168
2021-04-21 15:55:01.880130,18.52219
2021-04-21 15:55:01.895750,32.14145
2021-04-21 15:55:01.911380,39.74707
2021-04-21 15:55:01.927010,42.41751
2021-04-21 15:55:01.942630,41.40564
2021-04-21 15:55:01.958260,37.61624
2021-04-21 15:55:01.973880,31.68704
2021-04-21 15:55:01.989510,24.25308
2021-04-21 15:55:02.005130,16.17004
2021-04-21 15:55:02.020760,8.253113
2021-04-21 15:55:02.036390,1.05069
2021-04-21 15:55:02.052010,-5.358368
2021-04-21 15:55:02.067640,-11.14178
2021-04-21 15:55:02.083260,-16.58939
2021-04-21 15:55:02.098890,-21.80368
2021-04-21 15:55:02.114510,-26.75159
2021-04-21 15:55:02.130140,-31.33539
2021-04-21 15:55:02.145770,-35.39124
2021-04-21 15:55:02.161390,-38.90491
2021-04-21 15:55:02.177020,-41.9606
2021-04-21 15:55:02.192640,-44.67999
2021-04-21 15:55:02.208270,-47.09329
2021-04-21 15:55:02.223890,-49.13666
2021-04-21 15:55:02.239520,-50.49066
2021-04-21 15:55:02.255150,-50.66818
2021-04-21 15:55:02.270770,-49.04504
2021-04-21 15:55:02.286400,-44.99008
2021-04-21 15:55:02.302020,-38.14221
2021-04-21 15:55:02.317650,-28.59604
2021-04-21 15:55:02.333270,-17.04507
2021-04-21 15:55:02.348900,-4.748016
2021-04-21 15:55:02.364530,6.820129
2021-04-21 15:55:02.380150,16.48627
2021-04-21 15:55:02.395780,23.80011
2021-04-21 15:55:02.411400,29.26328
2021-04-21 15:55:02.427030,34.06461
2021-04-21 15:55:02.442650,39.55298
2021-04-21 15:55:02.458280,46.58807
2021-04-21 15:55:02.473910,55.20572
2021-04-21 15:55:02.489530,64.59
2021-04-21 15:55:02.505160,73.4306
2021-04-21 15:55:02.520780,80.383
2021-04-21 15:55:02.536410,84.55542
2021-04-21 15:55:02.552030,85.7244
2021-04-21 15:55:02.567660,84.48453
2021-04-21 15:55:02.583290,82.10107
2021-04-21 15:55:02.598910,80.35687
2021-04-21 15:55:02.614540,81.29987
2021-04-21 15:55:02.630160,86.73538
2021-04-21 15:55:02.645790,97.72424
2021-04-21 15:55:02.661410,114.021
2021-04-21 15:55:02.677040,133.5515
2021-04-21 15:55:02.692670,152.3653
2021-04-21 15:55:02.708290,165.2745
2021-04-21 15:55:02.723920,167.3828
2021-04-21 15:55:02.739540,155.907
2021-04-21 15:55:02.755170,131.4114
2021-04-21 15:55:02.770790,97.81808
2021-04-21 15:55:02.786420,60.85776
2021-04-21 15:55:02.802050,25.81906
2021-04-21 15:55:02.817670,-4.379303
2021-04-21 15:55:02.833300,-29.54913
2021-04-21 15:55:02.848920,-51.29773
2021-04-21 15:55:02.864550,-71.29788
2021-04-21 15:55:02.880170,-90.01071
2021-04-21 15:55:02.911430,-119.3203
2021-04-21 15:55:02.927050,-127.6732
2021-04-21 15:55:02.942680,-131.9076
2021-04-21 15:55:02.958300,-133.3058
2021-04-21 15:55:02.973930,-133.3201
2021-04-21 15:55:02.989550,-132.8495
2021-04-21 15:55:03.005180,-131.9653
2021-04-21 15:55:03.020810,-130.1546
2021-04-21 15:55:03.036430,-126.8357
2021-04-21 15:55:03.052060,-121.8594
2021-04-21 15:55:03.067680,-115.8365
2021-04-21 15:55:03.083310,-110.2065
2021-04-21 15:55:03.098930,-106.9504
2021-04-21 15:55:03.114560,-107.961
2021-04-21 15:55:03.130190,-114.3051
2021-04-21 15:55:03.145810,-125.6089
2021-04-21 15:55:03.161440,-140.1086
2021-04-21 15:55:03.177060,-155.0991
2021-04-21 15:55:03.192690,-167.8299
2021-04-21 15:55:03.208310,-176.1241
2021-04-21 15:55:03.223940,-178.6794
2021-04-21 15:55:03.239570,-174.8538
2021-04-21 15:55:03.255190,-164.4857
2021-04-21 15:55:03.270820,-147.8173
2021-04-21 15:55:03.286440,-125.6456
2021-04-21 15:55:03.302070,-99.44519
2021-04-21 15:55:03.317690,-71.34055
2021-04-21 15:55:03.333320,-43.62933
2021-04-21 15:55:03.348950,-18.23123
2021-04-21 15:55:03.364570,3.721863
2021-04-21 15:55:03.380200,21.94891
2021-04-21 15:55:03.395820,36.78134
2021-04-21 15:55:03.411450,48.66443
2021-04-21 15:55:03.427070,57.81009
2021-04-21 15:55:03.442700,64.14706
2021-04-21 15:55:03.458330,67.58011
2021-04-21 15:55:03.473950,68.40341
2021-04-21 15:55:03.489580,67.66772
2021-04-21 15:55:03.505200,67.12848
2021-04-21 15:55:03.520830,68.80057
2021-04-21 15:55:03.536450,74.19382
2021-04-21 15:55:03.552080,83.62378
2021-04-21 15:55:03.567710,95.79126
2021-04-21 15:55:03.583330,108.0015
2021-04-21 15:55:03.598960,117.2337
2021-04-21 15:55:03.614580,120.9482
2021-04-21 15:55:03.630210,118.1414
2021-04-21 15:55:03.645830,109.6646
2021-04-21 15:55:03.661460,97.72922
2021-04-21 15:55:03.677090,85.0614
2021-04-21 15:55:03.692710,74.10284
2021-04-21 15:55:03.708340,66.617
2021-04-21 15:55:03.723960,63.66296
2021-04-21 15:55:03.739590,65.59158
2021-04-21 15:55:03.755210,72.10278
2021-04-21 15:55:03.770840,82.13928
2021-04-21 15:55:03.786470,93.7742
2021-04-21 15:55:03.802090,104.477
2021-04-21 15:55:03.817720,111.8341
2021-04-21 15:55:03.833340,114.4095
2021-04-21 15:55:03.848970,112.5233
2021-04-21 15:55:03.864590,108.3007
2021-04-21 15:55:03.880220,104.9641
2021-04-21 15:55:03.895850,105.4506
2021-04-21 15:55:03.911470,111.0451
2021-04-21 15:55:03.927100,120.6277
2021-04-21 15:55:03.942720,130.9498
2021-04-21 15:55:03.958350,137.8143
2021-04-21 15:55:03.973970,137.6213
2021-04-21 15:55:03.989600,128.5505
2021-04-21 15:55:04.005230,110.9683
2021-04-21 15:55:04.020850,86.88608
2021-04-21 15:55:04.036480,58.95743
2021-04-21 15:55:04.052100,29.48041
2021-04-21 15:55:04.067730,-0.04846191
2021-04-21 15:55:04.083350,-28.81723
2021-04-21 15:55:04.098980,-55.98892
2021-04-21 15:55:04.114610,-80.64722
2021-04-21 15:55:04.130230,-101.8948
2021-04-21 15:55:04.145860,-119.1664
2021-04-21 15:55:04.161480,-132.6018
2021-04-21 15:55:04.177110,-142.9121
2021-04-21 15:55:04.192730,-150.8959
2021-04-21 15:55:04.208360,-156.852
2021-04-21 15:55:04.223990,-160.1971
2021-04-21 15:55:04.239610,-159.5759
2021-04-21 15:55:04.255240,-153.4631
2021-04-21 15:55:04.270860,-140.8724
2021-04-21 15:55:04.286490,-122.0329
2021-04-21 15:55:04.302110,-98.59714
2021-04-21 15:55:04.317740,-73.44153
2021-04-21 15:55:04.333370,-49.90866
2021-04-21 15:55:04.348990,-30.84552
2021-04-21 15:55:04.364620,-17.75037
2021-04-21 15:55:04.380240,-10.33041
2021-04-21 15:55:04.395870,-6.740173
2021-04-21 15:55:04.411490,-4.318695
2021-04-21 15:55:04.427120,-0.5460815
2021-04-21 15:55:04.442750,6.230896
2021-04-21 15:55:04.458370,16.58401
2021-04-21 15:55:04.474000,30.22842
2021-04-21 15:55:04.489620,46.46381
2021-04-21 15:55:04.505250,64.37024
2021-04-21 15:55:04.520870,82.84344
2021-04-21 15:55:04.536500,100.4343
2021-04-21 15:55:04.552130,115.4018
2021-04-21 15:55:04.567750,126.0925
2021-04-21 15:55:04.583380,131.3683
2021-04-21 15:55:04.599000,131.0542
2021-04-21 15:55:04.614630,126.0271
2021-04-21 15:55:04.630260,117.8777
2021-04-21 15:55:04.645880,108.3707
2021-04-21 15:55:04.661510,98.87967
2021-04-21 15:55:04.677130,90.08667
2021-04-21 15:55:04.692760,81.87952
2021-04-21 15:55:04.708380,73.4725
2021-04-21 15:55:04.724010,63.59613
2021-04-21 15:55:04.739640,50.82477
2021-04-21 15:55:04.755260,33.94687
2021-04-21 15:55:04.770890,12.51563
2021-04-21 15:55:04.786510,-12.65192
2021-04-21 15:55:04.802140,-39.29279
2021-04-21 15:55:04.817760,-64.07614
2021-04-21 15:55:04.833390,-83.48218
2021-04-21 15:55:04.849020,-94.99185
2021-04-21 15:55:04.864640,-97.9967
2021-04-21 15:55:04.880270,-94.07455
2021-04-21 15:55:04.895890,-86.36523
2021-04-21 15:55:04.911520,-78.45053
2021-04-21 15:55:04.927140,-73.04163
2021-04-21 15:55:04.942770,-71.22293
2021-04-21 15:55:04.958400,-72.38501
2021-04-21 15:55:04.974020,-74.89273
2021-04-21 15:55:04.989650,-76.99847
2021-04-21 15:55:05.005270,-77.62805
2021-04-21 15:55:05.020900,-76.66998
2021-04-21 15:55:05.036520,-74.64862
2021-04-21 15:55:05.052150,-72.22549
2021-04-21 15:55:05.067780,-69.67099
2021-04-21 15:55:05.083400,-66.71597
2021-04-21 15:55:05.099030,-62.80023
2021-04-21 15:55:05.114650,-57.54031
2021-04-21 15:55:05.145900,-44.53204
2021-04-21 15:55:05.161530,-38.9888
2021-04-21 15:55:05.177160,-35.76025
2021-04-21 15:55:05.192780,-35.51865
2021-04-21 15:55:05.208410,-38.04883
2021-04-21 15:55:05.224030,-42.27271
2021-04-21 15:55:05.239660,-46.42944
2021-04-21 15:55:05.255280,-48.60309
2021-04-21 15:55:05.270910,-47.19449
2021-04-21 15:55:05.286540,-41.50851
2021-04-21 15:55:05.302160,-32.07413
2021-04-21 15:55:05.317790,-20.59512
2021-04-21 15:55:05.333410,-9.679474
2021-04-21 15:55:05.349040,-1.701874
2021-04-21 15:55:05.364660,2.248352
2021-04-21 15:55:05.380290,2.854645
2021-04-21 15:55:05.395920,2.092865
2021-04-21 15:55:05.411540,2.208893
2021-04-21 15:55:05.427170,4.639221
2021-04-21 15:55:05.442790,9.377228
2021-04-21 15:55:05.458420,15.09915
2021-04-21 15:55:05.474040,19.68439
2021-04-21 15:55:05.489670,21.70923
2021-04-21 15:55:05.505300,21.28375
2021-04-21 15:55:05.520920,20.25098
2021-04-21 15:55:05.536550,21.40134
2021-04-21 15:55:05.552170,27.62085
2021-04-21 15:55:05.567800,41.19998
2021-04-21 15:55:05.583420,63.54517
2021-04-21 15:55:05.599050,94.81976
2021-04-21 15:55:05.614680,132.8666
2021-04-21 15:55:05.630300,173.559
2021-04-21 15:55:05.645930,211.4422
2021-04-21 15:55:05.661550,240.7796
2021-04-21 15:55:05.677180,256.8952
2021-04-21 15:55:05.692800,257.6923
2021-04-21 15:55:05.708430,244.4478
2021-04-21 15:55:05.724060,221.1461
2021-04-21 15:55:05.739680,192.6549
2021-04-21 15:55:05.755310,161.1112
2021-04-21 15:55:05.770930,126.9966
2021-04-21 15:55:05.786560,90.76706
2021-04-21 15:55:05.802180,54.27655
2021-04-21 15:55:05.817810,20.7334
2021-04-21 15:55:05.833440,-6.160675
2021-04-21 15:55:05.849060,-23.55237
2021-04-21 15:55:05.864690,-30.57025
2021-04-21 15:55:05.880310,-28.82907
2021-04-21 15:55:05.895940,-25.17032
2021-04-21 15:55:05.911560,-25.98755
2021-04-21 15:55:05.927190,-33.80197
2021-04-21 15:55:05.942820,-46.88745
2021-04-21 15:55:05.958440,-62.3475
2021-04-21 15:55:05.974070,-78.36447
2021-04-21 15:55:05.989690,-94.44592
2021-04-21 15:55:06.005320,-109.7939
2021-04-21 15:55:06.020940,-122.3146
2021-04-21 15:55:06.036570,-133.9359
2021-04-21 15:55:06.052200,-145.4567
2021-04-21 15:55:06.067820,-154.9873
2021-04-21 15:55:06.083450,-159.0833
2021-04-21 15:55:06.099070,-156.3267
2021-04-21 15:55:06.114700,-148.4473
2021-04-21 15:55:06.130320,-138.4974
2021-04-21 15:55:06.145950,-128.4729
2021-04-21 15:55:06.161580,-119.4709
2021-04-21 15:55:06.177200,-119.5264
2021-04-21 15:55:06.192830,-136.3215
2021-04-21 15:55:06.208450,-172.8599
2021-04-21 15:55:06.224080,-226.4859
2021-04-21 15:55:06.239700,-292.6546
2021-04-21 15:55:06.255330,-367.653
2021-04-21 15:55:06.270960,-449.0414
2021-04-21 15:55:06.286580,-534.733
2021-04-21 15:55:06.302210,-579.1401
2021-04-21 15:55:06.317830,-553.1458
2021-04-21 15:55:06.333460,-463.0328
2021-04-21 15:55:06.349080,-345.9793
2021-04-21 15:55:06.364710,-237.2463
2021-04-21 15:55:06.380340,-151.7836
2021-04-21 15:55:06.395960,-88.62543
2021-04-21 15:55:06.411590,-40.90131
2021-04-21 15:55:06.427210,-1.356781
2021-04-21 15:55:06.442840,34.16217
2021-04-21 15:55:06.458460,60.45667
2021-04-21 15:55:06.474090,72.31451
2021-04-21 15:55:06.489720,69.83282
2021-04-21 15:55:06.505340,58.93375
2021-04-21 15:55:06.520970,46.50133
2021-04-21 15:55:06.536590,36.93811
2021-04-21 15:55:06.552220,28.65158
2021-04-21 15:55:06.567840,24.33954
2021-04-21 15:55:06.583470,25.31697
2021-04-21 15:55:06.599100,27.01909
2021-04-21 15:55:06.614720,25.40935
2021-04-21 15:55:06.630350,20.071
2021-04-21 15:55:06.645970,14.16205
2021-04-21 15:55:06.661600,10.94289
2021-04-21 15:55:06.677220,11.98766
2021-04-21 15:55:06.692850,17.15696
2021-04-21 15:55:06.708480,26.2334
2021-04-21 15:55:06.724100,37.78708
2021-04-21 15:55:06.739730,46.49614
2021-04-21 15:55:06.755350,47.44009
2021-04-21 15:55:06.770980,39.16475
2021-04-21 15:55:06.786610,24.85408
2021-04-21 15:55:06.802230,8.010948
2021-04-21 15:55:06.817860,-6.900925
2021-04-21 15:55:06.833480,-16.35303
2021-04-21 15:55:06.849110,-18.36372
2021-04-21 15:55:06.864730,-14.06984
2021-04-21 15:55:06.880360,-8.070709
2021-04-21 15:55:06.895990,-4.899261
2021-04-21 15:55:06.911610,-6.367096
2021-04-21 15:55:06.927240,-10.90668
2021-04-21 15:55:06.942860,-15.36957
2021-04-21 15:55:06.958490,-16.93436
2021-04-21 15:55:06.974110,-14.73206
2021-04-21 15:55:06.989740,-9.576569
2021-04-21 15:55:07.005370,-3.659119
2021-04-21 15:55:07.020990,0.4503174
2021-04-21 15:55:07.036620,1.329651
2021-04-21 15:55:07.052240,-0.7609558
2021-04-21 15:55:07.067870,-4.305389
2021-04-21 15:55:07.083490,-7.335541
2021-04-21 15:55:07.099120,-8.018768
2021-04-21 15:55:07.114750,-5.2948
2021-04-21 15:55:07.130370,1.041687
2021-04-21 15:55:07.146000,9.879761
2021-04-21 15:55:07.161620,19.23663
2021-04-21 15:55:07.177250,26.9361
2021-04-21 15:55:07.192870,31.55969
2021-04-21 15:55:07.208500,32.82605
2021-04-21 15:55:07.224130,31.85706
2021-04-21 15:55:07.239750,30.56537
2021-04-21 15:55:07.255380,30.55121
2021-04-21 15:55:07.271000,32.58276
2021-04-21 15:55:07.286630,36.62268
2021-04-21 15:55:07.302250,42.48376
2021-04-21 15:55:07.317880,49.99994
2021-04-21 15:55:07.333510,58.62561
2021-04-21 15:55:07.349130,66.72528
2021-04-21 15:55:07.364760,71.57361
2021-04-21 15:55:07.396010,61.40173
2021-04-21 15:55:07.411630,46.28186
2021-04-21 15:55:07.427260,28.9549
2021-04-21 15:55:07.442890,14.67633
2021-04-21 15:55:07.458510,7.437683
2021-04-21 15:55:07.474140,8.364746
2021-04-21 15:55:07.489760,15.76563
2021-04-21 15:55:07.505390,26.64404
2021-04-21 15:55:07.521010,38.77698
2021-04-21 15:55:07.536640,51.96716
2021-04-21 15:55:07.552270,67.72534
2021-04-21 15:55:07.567890,87.5874
2021-04-21 15:55:07.583520,111.3588
2021-04-21 15:55:07.599140,136.1697
2021-04-21 15:55:07.614770,157.0902
2021-04-21 15:55:07.630390,168.9344
2021-04-21 15:55:07.646020,168.3661
2021-04-21 15:55:07.661650,155.2367
2021-04-21 15:55:07.677270,132.7435
2021-04-21 15:55:07.692900,106.5148
2021-04-21 15:55:07.708520,82.22839
2021-04-21 15:55:07.724150,63.82422
2021-04-21 15:55:07.739770,52.4458
2021-04-21 15:55:07.755400,46.6698
2021-04-21 15:55:07.771030,43.85315
2021-04-21 15:55:07.786650,41.64392
2021-04-21 15:55:07.802280,39.02026
2021-04-21 15:55:07.817900,36.42883
2021-04-21 15:55:07.833530,35.1051
2021-04-21 15:55:07.849150,36.1731
2021-04-21 15:55:07.864780,40.0343
2021-04-21 15:55:07.880410,46.2179
2021-04-21 15:55:07.896030,53.72449
2021-04-21 15:55:07.911660,61.5481
2021-04-21 15:55:07.927280,69.08154
2021-04-21 15:55:07.942910,76.3291
2021-04-21 15:55:07.958530,83.703
2021-04-21 15:55:07.974160,91.6012
2021-04-21 15:55:07.989790,100.1869
2021-04-21 15:55:08.005410,109.4263
2021-04-21 15:55:08.021040,119.3635
2021-04-21 15:55:08.036660,130.4052
2021-04-21 15:55:08.052290,143.2521
2021-04-21 15:55:08.067910,158.3434
2021-04-21 15:55:08.083540,175.1013
2021-04-21 15:55:08.099170,191.5212
2021-04-21 15:55:08.114790,204.4604
2021-04-21 15:55:08.130420,210.6602
2021-04-21 15:55:08.146040,208.066
2021-04-21 15:55:08.161670,196.6903
2021-04-21 15:55:08.177290,178.5748
2021-04-21 15:55:08.192920,156.9401
2021-04-21 15:55:08.208550,135.0221
2021-04-21 15:55:08.224170,115.0997
2021-04-21 15:55:08.239800,98.16687
2021-04-21 15:55:08.255420,84.20911
2021-04-21 15:55:08.271050,72.60168
2021-04-21 15:55:08.286670,62.3761
2021-04-21 15:55:08.302300,52.35974
2021-04-21 15:55:08.317930,41.27429
2021-04-21 15:55:08.333550,28.12927
2021-04-21 15:55:08.349180,12.80457
2021-04-21 15:55:08.364800,-3.569092
2021-04-21 15:55:08.380430,-18.74194
2021-04-21 15:55:08.396050,-30.05627
2021-04-21 15:55:08.411680,-35.23328
2021-04-21 15:55:08.427310,-33.08362
2021-04-21 15:55:08.442930,-23.70105
2021-04-21 15:55:08.458560,-8.42749
2021-04-21 15:55:08.474180,10.34778
2021-04-21 15:55:08.489810,29.43042
2021-04-21 15:55:08.505430,45.25427
2021-04-21 15:55:08.521060,54.65613
2021-04-21 15:55:08.536690,55.80835
2021-04-21 15:55:08.552310,48.90845
2021-04-21 15:55:08.567940,36.17847
2021-04-21 15:55:08.583560,21.02173
2021-04-21 15:55:08.599190,6.642212
2021-04-21 15:55:08.614810,-5.042603
2021-04-21 15:55:08.630440,-13.79309
2021-04-21 15:55:08.646070,-20.5553
2021-04-21 15:55:08.661690,-26.54602
2021-04-21 15:55:08.677320,-32.60693
2021-04-21 15:55:08.692940,-39.06958
2021-04-21 15:55:08.708570,-45.9917
2021-04-21 15:55:08.724190,-53.34534
2021-04-21 15:55:08.739820,-60.96069
2021-04-21 15:55:08.755450,-68.29712
2021-04-21 15:55:08.771070,-74.32922
2021-04-21 15:55:08.786700,-77.89783
2021-04-21 15:55:08.802320,-78.17346
2021-04-21 15:55:08.817950,-75.11841
2021-04-21 15:55:08.833570,-69.56262
2021-04-21 15:55:08.849200,-62.93066
2021-04-21 15:55:08.864830,-56.7561
2021-04-21 15:55:08.880450,-52.31506
2021-04-21 15:55:08.896080,-50.48303
2021-04-21 15:55:08.911700,-51.63049
2021-04-21 15:55:08.927330,-55.64307
2021-04-21 15:55:08.942950,-61.76282
2021-04-21 15:55:08.958580,-68.60132
2021-04-21 15:55:08.974210,-74.27405
2021-04-21 15:55:08.989830,-76.89954
2021-04-21 15:55:09.005460,-75.2074
2021-04-21 15:55:09.021080,-69.07434
2021-04-21 15:55:09.036710,-59.61365
2021-04-21 15:55:09.052340,-48.80176
2021-04-21 15:55:09.067960,-38.71582
2021-04-21 15:55:09.083590,-30.75854
2021-04-21 15:55:09.099210,-25.24414
2021-04-21 15:55:09.114840,-21.49243
2021-04-21 15:55:09.130460,-18.38306
2021-04-21 15:55:09.146090,-15.03931
2021-04-21 15:55:09.161720,-11.31897
2021-04-21 15:55:09.177340,-7.790649
2021-04-21 15:55:09.192970,-5.3573
2021-04-21 15:55:09.208590,-4.648193
2021-04-21 15:55:09.224220,-5.620117
2021-04-21 15:55:09.239840,-7.530029
2021-04-21 15:55:09.255470,-9.306274
2021-04-21 15:55:09.271100,-10.04785
2021-04-21 15:55:09.286720,-9.486572
2021-04-21 15:55:09.302350,-8.043457
2021-04-21 15:55:09.317970,-6.60022
2021-04-21 15:55:09.333600,-6.088013
2021-04-21 15:55:09.349220,-7.110107
2021-04-21 15:55:09.364850,-9.731934
2021-04-21 15:55:09.380480,-13.53088
2021-04-21 15:55:09.396100,-17.82227
2021-04-21 15:55:09.411730,-22.02246
2021-04-21 15:55:09.427350,-25.8645
2021-04-21 15:55:09.442980,-29.57336
2021-04-21 15:55:09.458600,-33.78015
2021-04-21 15:55:09.474230,-39.23816
2021-04-21 15:55:09.489860,-46.4165
2021-04-21 15:55:09.505480,-55.11804
2021-04-21 15:55:09.521110,-64.3678
2021-04-21 15:55:09.536730,-72.59143
2021-04-21 15:55:09.552360,-78.10217
2021-04-21 15:55:09.567980,-79.66895
2021-04-21 15:55:09.583610,-76.75476
2021-04-21 15:55:09.599240,-69.50122
2021-04-21 15:55:09.614860,-58.45105
2021-04-21 15:55:09.630490,-44.2489
2021-04-21 15:55:09.646110,-27.56824
2021-04-21 15:55:09.661740,-9.210205
2021-04-21 15:55:09.677360,9.752319
2021-04-21 15:55:09.692990,27.99304
2021-04-21 15:55:09.708620,44.17444
2021-04-21 15:55:09.724240,57.31421
2021-04-21 15:55:09.755490,73.56335
2021-04-21 15:55:09.771120,77.51587
2021-04-21 15:55:09.786740,79.51819
2021-04-21 15:55:09.802370,80.01343
2021-04-21 15:55:09.818000,79.24866
2021-04-21 15:55:09.833620,77.41443
2021-04-21 15:55:09.849250,74.72778
2021-04-21 15:55:09.864870,71.32361
2021-04-21 15:55:09.880500,67.11108
2021-04-21 15:55:09.896120,61.72351
2021-04-21 15:55:09.911750,54.64453
2021-04-21 15:55:09.927380,45.54456
2021-04-21 15:55:09.943000,34.54468
2021-04-21 15:55:09.958630,22.32568
2021-04-21 15:55:09.974250,9.912964
2021-04-21 15:55:09.989880,-1.535156
2021-04-21 15:55:10.005500,-11.02283
2021-04-21 15:55:10.021130,-17.80396
2021-04-21 15:55:10.036760,-21.41724
2021-04-21 15:55:10.052380,-21.90271
2021-04-21 15:55:10.068010,-20.00562
2021-04-21 15:55:10.083630,-17.3429
2021-04-21 15:55:10.099260,-16.00598
2021-04-21 15:55:10.114880,-17.78015
2021-04-21 15:55:10.130510,-23.15601
2021-04-21 15:55:10.146140,-30.83948
2021-04-21 15:55:10.161760,-38.07556
2021-04-21 15:55:10.177390,-41.78796
2021-04-21 15:55:10.193010,-39.99866
2021-04-21 15:55:10.208640,-32.70728
2021-04-21 15:55:10.224260,-21.92847
2021-04-21 15:55:10.239890,-10.68738
2021-04-21 15:55:10.255520,-1.762085
2021-04-21 15:55:10.271140,3.288208
2021-04-21 15:55:10.286770,4.366333
2021-04-21 15:55:10.302390,2.365112
2021-04-21 15:55:10.318020,-1.603027
2021-04-21 15:55:10.333640,-6.816895
2021-04-21 15:55:10.349270,-13.00562
2021-04-21 15:55:10.364900,-20.20398
2021-04-21 15:55:10.380520,-28.31885
2021-04-21 15:55:10.396150,-36.91772
2021-04-21 15:55:10.411770,-45.20081
2021-04-21 15:55:10.427400,-52.17126
2021-04-21 15:55:10.443020,-56.8208
2021-04-21 15:55:10.458650,-58.32739
2021-04-21 15:55:10.474280,-56.19983
2021-04-21 15:55:10.489900,-50.32471
2021-04-21 15:55:10.505530,-41.07935
2021-04-21 15:55:10.521150,-29.33618
2021-04-21 15:55:10.536780,-16.34607
2021-04-21 15:55:10.552400,-3.528076
2021-04-21 15:55:10.568030,7.84314
2021-04-21 15:55:10.583660,16.88757
2021-04-21 15:55:10.599280,23.18848
2021-04-21 15:55:10.614910,26.67639
2021-04-21 15:55:10.630530,27.45215
2021-04-21 15:55:10.646160,25.71436
2021-04-21 15:55:10.661780,21.76367
2021-04-21 15:55:10.677410,16.18738
2021-04-21 15:55:10.693040,9.858887
2021-04-21 15:55:10.708660,3.886841
2021-04-21 15:55:10.724290,-0.7208252
2021-04-21 15:55:10.739910,-3.308716
2021-04-21 15:55:10.755540,-3.76355
2021-04-21 15:55:10.771160,-2.424805
2021-04-21 15:55:10.786790,0.1790771
2021-04-21 15:55:10.802420,3.686523
2021-04-21 15:55:10.818040,8.041382
2021-04-21 15:55:10.833670,13.38367
2021-04-21 15:55:10.849290,19.78638
2021-04-21 15:55:10.864920,26.927
2021-04-21 15:55:10.880540,34.02698
2021-04-21 15:55:10.896170,40.18542
2021-04-21 15:55:10.911800,44.79419
2021-04-21 15:55:10.927420,47.88269
2021-04-21 15:55:10.943050,50.05249
2021-04-21 15:55:10.958670,52.03418
2021-04-21 15:55:10.974300,54.17712
2021-04-21 15:55:10.989920,56.1615
2021-04-21 15:55:11.005550,57.20618
2021-04-21 15:55:11.021180,56.52759
2021-04-21 15:55:11.036800,53.87256
2021-04-21 15:55:11.052430,49.65869
2021-04-21 15:55:11.068050,44.72156
2021-04-21 15:55:11.083680,39.85303
2021-04-21 15:55:11.099300,35.42358
2021-04-21 15:55:11.114930,31.33362
2021-04-21 15:55:11.130560,27.29895
2021-04-21 15:55:11.146180,23.22961
2021-04-21 15:55:11.161810,19.32471
2021-04-21 15:55:11.177430,16.04724
2021-04-21 15:55:11.193060,13.72815
2021-04-21 15:55:11.208680,12.31909
2021-04-21 15:55:11.224310,11.32495
2021-04-21 15:55:11.239940,10.06262
2021-04-21 15:55:11.255560,7.955688
2021-04-21 15:55:11.271190,4.903198
2021-04-21 15:55:11.286810,1.314331
2021-04-21 15:55:11.302440,-2.109619
2021-04-21 15:55:11.318060,-4.722168
2021-04-21 15:55:11.333690,-6.287842
2021-04-21 15:55:11.349320,-7.127686
2021-04-21 15:55:11.364940,-7.962036
2021-04-21 15:55:11.380570,-9.604858
2021-04-21 15:55:11.396190,-12.63733
2021-04-21 15:55:11.411820,-17.13745
2021-04-21 15:55:11.427440,-22.6239
2021-04-21 15:55:11.443070,-28.17603
2021-04-21 15:55:11.458700,-32.66956
2021-04-21 15:55:11.474320,-35.01733
2021-04-21 15:55:11.489950,-34.48999
2021-04-21 15:55:11.505570,-30.86353
2021-04-21 15:55:11.521200,-24.49744
2021-04-21 15:55:11.536820,-16.23804
2021-04-21 15:55:11.552450,-7.224609
2021-04-21 15:55:11.568080,1.395752
2021-04-21 15:55:11.583700,8.651978
2021-04-21 15:55:11.599330,13.89453
2021-04-21 15:55:11.614950,16.8313
2021-04-21 15:55:11.630580,17.49841
2021-04-21 15:55:11.646210,16.27844
2021-04-21 15:55:11.661830,13.85681
2021-04-21 15:55:11.677460,11.1012
2021-04-21 15:55:11.693080,8.910767
2021-04-21 15:55:11.708710,7.972656
2021-04-21 15:55:11.724330,8.598511
2021-04-21 15:55:11.739960,10.68665
2021-04-21 15:55:11.755590,13.77856
2021-04-21 15:55:11.771210,17.18311
2021-04-21 15:55:11.786840,20.14941
2021-04-21 15:55:11.802460,21.96497
2021-04-21 15:55:11.818090,22.1156
2021-04-21 15:55:11.833710,20.4093
2021-04-21 15:55:11.849340,17.09753
2021-04-21 15:55:11.864970,12.81042
2021-04-21 15:55:11.880590,8.333618
2021-04-21 15:55:11.896220,4.300537
2021-04-21 15:55:11.911840,0.8135986
2021-04-21 15:55:11.927470,-2.538574
2021-04-21 15:55:11.943090,-6.47644
2021-04-21 15:55:11.958720,-11.59363
2021-04-21 15:55:11.974350,-17.90417
2021-04-21 15:55:11.989970,-24.76501
2021-04-21 15:55:12.005600,-31.03125
2021-04-21 15:55:12.021220,-35.55542
2021-04-21 15:55:12.036850,-37.59167
2021-04-21 15:55:12.052470,-37.06311
2021-04-21 15:55:12.068100,-34.51648
2021-04-21 15:55:12.083730,-30.88916
2021-04-21 15:55:12.099350,-27.23511
2021-04-21 15:55:12.114980,-24.45215
2021-04-21 15:55:12.130600,-23.05237
2021-04-21 15:55:12.146230,-22.90576
2021-04-21 15:55:12.161850,-23.18127
2021-04-21 15:55:12.177480,-22.40796
2021-04-21 15:55:12.193110,-18.9458
2021-04-21 15:55:12.208730,-11.57764
2021-04-21 15:55:12.224360,-0.1340332
2021-04-21 15:55:12.239980,14.31067
2021-04-21 15:55:12.255610,29.66833
2021-04-21 15:55:12.271230,43.52356
2021-04-21 15:55:12.286860,53.92712
2021-04-21 15:55:12.302490,59.93018
2021-04-21 15:55:12.318110,61.67773
2021-04-21 15:55:12.333740,60.0752
2021-04-21 15:55:12.349360,56.29297
2021-04-21 15:55:12.364990,51.29919
2021-04-21 15:55:12.380610,45.74561
2021-04-21 15:55:12.396240,40.04333
2021-04-21 15:55:12.411870,34.57996
2021-04-21 15:55:12.427490,29.84631
2021-04-21 15:55:12.443120,26.35327
2021-04-21 15:55:12.458740,24.42175
2021-04-21 15:55:12.474370,23.95752
2021-04-21 15:55:12.489990,24.39551
2021-04-21 15:55:12.505620,24.83826
2021-04-21 15:55:12.521250,24.41321
2021-04-21 15:55:12.536870,22.56958
2021-04-21 15:55:12.552500,19.29224
2021-04-21 15:55:12.568120,15.00171
2021-04-21 15:55:12.583750,10.29846
2021-04-21 15:55:12.599370,5.691284
2021-04-21 15:55:12.615000,1.419922
2021-04-21 15:55:12.630630,-2.521851
2021-04-21 15:55:12.646250,-6.269409
2021-04-21 15:55:12.661880,-9.978394
2021-04-21 15:55:12.677500,-13.75586
2021-04-21 15:55:12.693130,-17.71399
2021-04-21 15:55:12.708750,-21.96448
2021-04-21 15:55:12.724380,-26.64709
2021-04-21 15:55:12.740010,-31.88574
2021-04-21 15:55:12.755630,-37.69446
2021-04-21 15:55:12.771260,-43.89246
2021-04-21 15:55:12.786880,-50.0387
2021-04-21 15:55:12.802510,-55.42957
2021-04-21 15:55:12.818130,-59.20166
2021-04-21 15:55:12.833760,-60.57568
2021-04-21 15:55:12.849390,-59.13013
2021-04-21 15:55:12.865010,-55.01917
2021-04-21 15:55:12.880640,-48.98645
2021-04-21 15:55:12.896260,-42.12109
2021-04-21 15:55:12.911890,-35.50623
2021-04-21 15:55:12.927510,-29.828
2021-04-21 15:55:12.943140,-25.23669
2021-04-21 15:55:12.958770,-21.43921
2021-04-21 15:55:12.974390,-17.99255
2021-04-21 15:55:12.990020,-14.56445
2021-04-21 15:55:13.005640,-11.08582
2021-04-21 15:55:13.021270,-7.700562
2021-04-21 15:55:13.036890,-4.569824
2021-04-21 15:55:13.052520,-1.703979
2021-04-21 15:55:13.068150,1.086426
2021-04-21 15:55:13.083770,4.088989
2021-04-21 15:55:13.099400,7.501221
2021-04-21 15:55:13.115020,11.26636
2021-04-21 15:55:13.130650,15.02551
2021-04-21 15:55:13.146270,18.22693
2021-04-21 15:55:13.161900,20.34302
2021-04-21 15:55:13.177530,21.05823
2021-04-21 15:55:13.193150,20.3783
2021-04-21 15:55:13.208780,18.59229
2021-04-21 15:55:13.224400,16.10046
2021-04-21 15:55:13.240030,13.20728
2021-04-21 15:55:13.255650,10.05042
2021-04-21 15:55:13.271280,6.619873
2021-04-21 15:55:13.286910,2.872803
2021-04-21 15:55:13.302530,-1.213257
2021-04-21 15:55:13.318160,-5.573975
2021-04-21 15:55:13.333780,-10.15601
2021-04-21 15:55:13.349410,-14.96741
2021-04-21 15:55:13.365030,-20.04272
2021-04-21 15:55:13.380660,-25.32568
2021-04-21 15:55:13.396290,-30.50574
2021-04-21 15:55:13.411910,-34.92639
2021-04-21 15:55:13.427540,-37.6936
2021-04-21 15:55:13.443160,-37.93323
2021-04-21 15:55:13.458790,-35.17773
2021-04-21 15:55:13.474410,-29.64026
2021-04-21 15:55:13.490040,-22.25085
2021-04-21 15:55:13.505670,-14.38062
2021-04-21 15:55:13.521290,-7.350464
2021-04-21 15:55:13.536920,-1.968994
2021-04-21 15:55:13.552540,1.660767
2021-04-21 15:55:13.568170,4.055664
2021-04-21 15:55:13.583790,5.959961
2021-04-21 15:55:13.599420,7.917603
2021-04-21 15:55:13.615050,10.04565
2021-04-21 15:55:13.630670,12.03796
2021-04-21 15:55:13.646300,13.4967
2021-04-21 15:55:13.661920,14.21106
2021-04-21 15:55:13.677550,14.29565
2021-04-21 15:55:13.693170,14.09119
2021-04-21 15:55:13.708800,13.92676
2021-04-21 15:55:13.724430,13.89417
2021-04-21 15:55:13.740050,13.802
2021-04-21 15:55:13.755680,13.36292
2021-04-21 15:55:13.771300,12.44019
2021-04-21 15:55:13.786930,11.24133
2021-04-21 15:55:13.802550,10.25085
2021-04-21 15:55:13.818180,9.988403
2021-04-21 15:55:13.833810,10.68652
2021-04-21 15:55:13.849430,12.0907
2021-04-21 15:55:13.865060,13.49536
2021-04-21 15:55:13.880680,14.05603
2021-04-21 15:55:13.896310,13.15564
2021-04-21 15:55:13.911940,10.70398
2021-04-21 15:55:13.927560,7.127197
2021-04-21 15:55:13.943190,3.085327
2021-04-21 15:55:13.958810,-0.8201904
2021-04-21 15:55:13.974440,-4.342773
2021-04-21 15:55:13.990060,-7.588867
2021-04-21 15:55:14.005690,-10.89087
2021-04-21 15:55:14.021320,-14.5791
2021-04-21 15:55:14.036940,-18.89441
2021-04-21 15:55:14.052570,-24.00452
2021-04-21 15:55:14.068190,-30.01807
2021-04-21 15:55:14.083820,-36.88171
2021-04-21 15:55:14.099440,-44.17615
2021-04-21 15:55:14.115070,-50.97339
2021-04-21 15:55:14.130700,-55.89429
2021-04-21 15:55:14.146320,-57.5061
2021-04-21 15:55:14.161950,-54.88464
2021-04-21 15:55:14.177570,-48.05933
2021-04-21 15:55:14.193200,-38.11877
2021-04-21 15:55:14.208820,-26.82764
2021-04-21 15:55:14.224450,-16.01978
2021-04-21 15:55:14.240080,-6.946899
2021-04-21 15:55:14.255700,0.004638672
2021-04-21 15:55:14.271330,5.265747
2021-04-21 15:55:14.286950,9.695435
2021-04-21 15:55:14.302580,14.10974
2021-04-21 15:55:14.318200,18.91833
2021-04-21 15:55:14.333830,23.96252
2021-04-21 15:55:14.349460,28.63159
2021-04-21 15:55:14.365080,32.13843
2021-04-21 15:55:14.380710,33.8717
2021-04-21 15:55:14.396330,33.65393
2021-04-21 15:55:14.411960,31.88855
2021-04-21 15:55:14.427580,29.48901
2021-04-21 15:55:14.443210,27.57703
2021-04-21 15:55:14.458840,27.18213
2021-04-21 15:55:14.474460,28.93225
2021-04-21 15:55:14.490090,32.88745
2021-04-21 15:55:14.505710,38.54578
2021-04-21 15:55:14.521340,45.05676
2021-04-21 15:55:14.536960,51.46082
2021-04-21 15:55:14.552590,56.95654
2021-04-21 15:55:14.568220,61.10059
2021-04-21 15:55:14.583840,63.90112
2021-04-21 15:55:14.599470,65.76733
2021-04-21 15:55:14.615090,67.36609
2021-04-21 15:55:14.630720,69.33752
2021-04-21 15:55:14.646340,72.09033
2021-04-21 15:55:14.661970,75.57141
2021-04-21 15:55:14.677600,79.32434
2021-04-21 15:55:14.693220,82.62854
2021-04-21 15:55:14.708850,84.84998
2021-04-21 15:55:14.724470,85.59802
2021-04-21 15:55:14.740100,84.86804
2021-04-21 15:55:14.755720,82.88892
2021-04-21 15:55:14.771350,79.91235
2021-04-21 15:55:14.786980,75.97644
2021-04-21 15:55:14.802600,70.83508
2021-04-21 15:55:14.818230,64.03125
2021-04-21 15:55:14.833850,55.10449
2021-04-21 15:55:14.849480,43.84827
2021-04-21 15:55:14.865100,30.54016
2021-04-21 15:55:14.880730,16.03467
2021-04-21 15:55:14.896360,1.647095
2021-04-21 15:55:14.911980,-11.11316
2021-04-21 15:55:14.927610,-21.00891
2021-04-21 15:55:14.943230,-27.40283
2021-04-21 15:55:14.958860,-30.48779
2021-04-21 15:55:14.974480,-31.18176
2021-04-21 15:55:14.990110,-30.74255
2021-04-21 15:55:15.005740,-30.35974
2021-04-21 15:55:15.021360,-30.797
2021-04-21 15:55:15.036990,-32.29309
2021-04-21 15:55:15.052610,-34.65869
2021-04-21 15:55:15.068240,-37.50867
2021-04-21 15:55:15.083860,-40.4364
2021-04-21 15:55:15.099490,-43.15063
2021-04-21 15:55:15.115120,-45.46887
2021-04-21 15:55:15.130740,-47.29004
2021-04-21 15:55:15.146370,-48.50916
2021-04-21 15:55:15.161990,-49.00024
2021-04-21 15:55:15.177620,-48.58447
2021-04-21 15:55:15.193240,-47.08655
2021-04-21 15:55:15.208870,-44.38562
2021-04-21 15:55:15.224500,-40.50208
2021-04-21 15:55:15.240120,-35.63452
2021-04-21 15:55:15.255750,-30.14148
2021-04-21 15:55:15.271370,-24.49426
2021-04-21 15:55:15.287000,-19.17517
2021-04-21 15:55:15.302620,-14.63062
2021-04-21 15:55:15.318250,-11.1936
2021-04-21 15:55:15.333880,-9.074951
2021-04-21 15:55:15.349500,-8.332764
2021-04-21 15:55:15.365130,-8.894653
2021-04-21 15:55:15.380750,-10.5686
2021-04-21 15:55:15.396380,-13.00122
2021-04-21 15:55:15.412000,-15.66223
2021-04-21 15:55:15.427630,-17.89526
2021-04-21 15:55:15.443260,-18.94873
2021-04-21 15:55:15.458880,-18.20862
2021-04-21 15:55:15.474510,-15.43408
2021-04-21 15:55:15.490130,-10.9314
2021-04-21 15:55:15.505760,-5.542969
2021-04-21 15:55:15.521380,-0.4390869
2021-04-21 15:55:15.537010,3.269531
2021-04-21 15:55:15.552640,4.877808
2021-04-21 15:55:15.568260,4.220337
2021-04-21 15:55:15.583890,1.591797
2021-04-21 15:55:15.599510,-2.484741
2021-04-21 15:55:15.615140,-7.462036
2021-04-21 15:55:15.630760,-12.9314
2021-04-21 15:55:15.646390,-18.52991
2021-04-21 15:55:15.662020,-23.89197
2021-04-21 15:55:15.677640,-28.53882
2021-04-21 15:55:15.693270,-31.90076
2021-04-21 15:55:15.708890,-33.42004
2021-04-21 15:55:15.724520,-32.67664
2021-04-21 15:55:15.740140,-29.55115
2021-04-21 15:55:15.755770,-24.33582
2021-04-21 15:55:15.771400,-17.74951
2021-04-21 15:55:15.787020,-10.7793
2021-04-21 15:55:15.802650,-4.433838
2021-04-21 15:55:15.818270,0.4735107
2021-04-21 15:55:15.833900,3.573975
2021-04-21 15:55:15.849520,4.911377
2021-04-21 15:55:15.865150,4.848267
2021-04-21 15:55:15.880780,3.869629
2021-04-21 15:55:15.896400,2.424927
2021-04-21 15:55:15.912030,0.8029785
2021-04-21 15:55:15.927650,-0.8712158
2021-04-21 15:55:15.943280,-2.592529
2021-04-21 15:55:15.958900,-4.421509
2021-04-21 15:55:15.974530,-6.362061
2021-04-21 15:55:15.990160,-8.307373
2021-04-21 15:55:16.005780,-10.0199
2021-04-21 15:55:16.021410,-11.19727
2021-04-21 15:55:16.037030,-11.64746
2021-04-21 15:55:16.052660,-11.38416
2021-04-21 15:55:16.068280,-10.69177
2021-04-21 15:55:16.083910,-10.02002
2021-04-21 15:55:16.099540,-9.856445
2021-04-21 15:55:16.115160,-10.51672
2021-04-21 15:55:16.130790,-12.10681
2021-04-21 15:55:16.146410,-14.50037
2021-04-21 15:55:16.162040,-17.41064
2021-04-21 15:55:16.177670,-20.46057
2021-04-21 15:55:16.193290,-23.29199
2021-04-21 15:55:16.208920,-25.62915
2021-04-21 15:55:16.224540,-27.35913
2021-04-21 15:55:16.240170,-28.56592
2021-04-21 15:55:16.255790,-29.51331
2021-04-21 15:55:16.271420,-30.57825
2021-04-21 15:55:16.287050,-32.11768
2021-04-21 15:55:16.302670,-34.30359
2021-04-21 15:55:16.318300,-37.03687
2021-04-21 15:55:16.333920,-39.81836
2021-04-21 15:55:16.349550,-41.83887
2021-04-21 15:55:16.365170,-42.13367
2021-04-21 15:55:16.380800,-39.922
2021-04-21 15:55:16.396430,-34.92456
2021-04-21 15:55:16.412050,-27.58667
2021-04-21 15:55:16.427680,-18.98938
2021-04-21 15:55:16.443300,-10.51111
2021-04-21 15:55:16.458930,-3.380371
2021-04-21 15:55:16.474550,1.740845
2021-04-21 15:55:16.490180,4.873779
2021-04-21 15:55:16.505810,6.53833
2021-04-21 15:55:16.521430,7.429932
2021-04-21 15:55:16.537060,8.110474
2021-04-21 15:55:16.552680,8.852905
2021-04-21 15:55:16.568310,9.708496
2021-04-21 15:55:16.583930,10.65015
2021-04-21 15:55:16.599560,11.64148
2021-04-21 15:55:16.615190,12.70349
2021-04-21 15:55:16.630810,13.81763
2021-04-21 15:55:16.646440,14.88489
2021-04-21 15:55:16.662060,15.70898
2021-04-21 15:55:16.677690,16.05103
2021-04-21 15:55:16.693310,15.72559
2021-04-21 15:55:16.708940,14.68274
2021-04-21 15:55:16.724570,13.01208
2021-04-21 15:55:16.740190,10.91345
2021-04-21 15:55:16.755820,8.659424
2021-04-21 15:55:16.771440,6.492798
2021-04-21 15:55:16.787070,4.608643
2021-04-21 15:55:16.802690,3.088745
2021-04-21 15:55:16.818320,1.871338
2021-04-21 15:55:16.833950,0.7337646
2021-04-21 15:55:16.849570,-0.6212158
2021-04-21 15:55:16.865200,-2.484253
2021-04-21 15:55:16.880820,-5.011963
2021-04-21 15:55:16.896450,-8.11731
2021-04-21 15:55:16.912070,-11.37756
2021-04-21 15:55:16.927700,-14.10986
2021-04-21 15:55:16.943330,-15.48889
2021-04-21 15:55:16.958950,-14.79993
2021-04-21 15:55:16.974580,-11.6521
2021-04-21 15:55:16.990200,-6.132324
2021-04-21 15:55:17.005830,1.195923
2021-04-21 15:55:17.021450,9.405273
2021-04-21 15:55:17.037080,17.46594
2021-04-21 15:55:17.052710,24.48206
2021-04-21 15:55:17.068330,29.87476
2021-04-21 15:55:17.083960,33.51855
2021-04-21 15:55:17.099580,35.64526
2021-04-21 15:55:17.115210,36.72205
2021-04-21 15:55:17.130830,37.22864
2021-04-21 15:55:17.146460,37.4801
2021-04-21 15:55:17.162090,37.59644
2021-04-21 15:55:17.177710,37.54236
2021-04-21 15:55:17.193340,37.31165
2021-04-21 15:55:17.208960,37.06726
2021-04-21 15:55:17.224590,37.12842
2021-04-21 15:55:17.240210,37.83289
2021-04-21 15:55:17.255840,39.29504
2021-04-21 15:55:17.271470,41.28711
2021-04-21 15:55:17.287090,43.23462
2021-04-21 15:55:17.302720,44.5249
2021-04-21 15:55:17.318340,44.72949
2021-04-21 15:55:17.333970,43.88269
2021-04-21 15:55:17.349590,42.45374
2021-04-21 15:55:17.365220,41.16968
2021-04-21 15:55:17.380850,40.69971
2021-04-21 15:55:17.396470,41.39038
2021-04-21 15:55:17.412100,43.16125
2021-04-21 15:55:17.427720,45.51489
2021-04-21 15:55:17.458970,48.95068
2021-04-21 15:55:17.474600,48.50818
2021-04-21 15:55:17.490230,45.98523
2021-04-21 15:55:17.505850,41.48938
2021-04-21 15:55:17.521480,35.77661
2021-04-21 15:55:17.537100,30.27844
2021-04-21 15:55:17.552730,26.77478
2021-04-21 15:55:17.568350,26.80542
2021-04-21 15:55:17.583980,31.0575
2021-04-21 15:55:17.599610,38.93909
2021-04-21 15:55:17.615230,48.68311
2021-04-21 15:55:17.630860,57.89392
2021-04-21 15:55:17.646480,64.40247
2021-04-21 15:55:17.662110,66.95313
2021-04-21 15:55:17.677730,65.51111
2021-04-21 15:55:17.693360,61.01123
2021-04-21 15:55:17.708990,54.87634
2021-04-21 15:55:17.724610,48.47717
2021-04-21 15:55:17.740240,42.83191
2021-04-21 15:55:17.755860,38.51147
2021-04-21 15:55:17.771490,35.74475
2021-04-21 15:55:17.787110,34.47363
2021-04-21 15:55:17.802740,34.42133
2021-04-21 15:55:17.818370,35.07666
2021-04-21 15:55:17.833990,35.87335
2021-04-21 15:55:17.849620,36.31726
2021-04-21 15:55:17.865240,36.22009
2021-04-21 15:55:17.880870,35.7804
2021-04-21 15:55:17.896490,35.52124
2021-04-21 15:55:17.912120,36.05389
2021-04-21 15:55:17.927750,37.75653
2021-04-21 15:55:17.943370,40.5376
2021-04-21 15:55:17.959000,43.78589
2021-04-21 15:55:17.974620,46.48865
2021-04-21 15:55:17.990250,47.46515
2021-04-21 15:55:18.005870,45.64026
2021-04-21 15:55:18.021500,40.21875
2021-04-21 15:55:18.037130,30.8584
2021-04-21 15:55:18.052750,17.78632
2021-04-21 15:55:18.068380,1.901306
2021-04-21 15:55:18.084000,-15.31482
2021-04-21 15:55:18.099630,-31.96283
2021-04-21 15:55:18.115250,-46.16357
2021-04-21 15:55:18.130880,-56.54803
2021-04-21 15:55:18.146510,-62.62402
2021-04-21 15:55:18.162130,-64.8761
2021-04-21 15:55:18.177760,-64.52228
2021-04-21 15:55:18.193380,-63.02228
2021-04-21 15:55:18.209010,-61.58038
2021-04-21 15:55:18.224630,-60.82123
2021-04-21 15:55:18.240260,-60.69568
2021-04-21 15:55:18.255890,-60.66418
2021-04-21 15:55:18.271510,-59.9668
2021-04-21 15:55:18.287140,-57.90125
2021-04-21 15:55:18.302760,-54.03308
2021-04-21 15:55:18.318390,-48.31647
2021-04-21 15:55:18.334010,-41.07697
2021-04-21 15:55:18.349640,-32.94312
2021-04-21 15:55:18.365270,-24.74597
2021-04-21 15:55:18.380890,-17.39252
2021-04-21 15:55:18.396520,-11.82843
2021-04-21 15:55:18.412140,-9.005249
2021-04-21 15:55:18.427770,-9.79541
2021-04-21 15:55:18.443390,-14.88959
2021-04-21 15:55:18.459020,-24.58173
2021-04-21 15:55:18.474650,-38.46021
2021-04-21 15:55:18.490270,-55.22711
2021-04-21 15:55:18.505900,-72.7746
2021-04-21 15:55:18.521520,-88.55652
2021-04-21 15:55:18.537150,-100.317
2021-04-21 15:55:18.552770,-106.8186
2021-04-21 15:55:18.568400,-108.2203
2021-04-21 15:55:18.584030,-106.0016
2021-04-21 15:55:18.599650,-102.2494
2021-04-21 15:55:18.615280,-98.82965
2021-04-21 15:55:18.630900,-96.68494
2021-04-21 15:55:18.646530,-95.70239
2021-04-21 15:55:18.662150,-95.05109
2021-04-21 15:55:18.677780,-93.83044
2021-04-21 15:55:18.693410,-91.62323
2021-04-21 15:55:18.709030,-88.67529
2021-04-21 15:55:18.724660,-85.74927
2021-04-21 15:55:18.740280,-83.6673
2021-04-21 15:55:18.755910,-82.96436
2021-04-21 15:55:18.771540,-83.60596
2021-04-21 15:55:18.787160,-84.88617
2021-04-21 15:55:18.802790,-85.47729
2021-04-21 15:55:18.818410,-83.63434
2021-04-21 15:55:18.834040,-77.66028
2021-04-21 15:55:18.849660,-66.46661
2021-04-21 15:55:18.865290,-50.09631
2021-04-21 15:55:18.880920,-29.84015
2021-04-21 15:55:18.896540,-7.848145
2021-04-21 15:55:18.912170,13.67865
2021-04-21 15:55:18.927790,33.33087
2021-04-21 15:55:18.943420,50.96814
2021-04-21 15:55:18.959040,67.54297
2021-04-21 15:55:18.974670,84.47992
2021-04-21 15:55:18.990300,102.8168
2021-04-21 15:55:19.005920,122.5781
2021-04-21 15:55:19.021550,142.6242
2021-04-21 15:55:19.037170,160.9289
2021-04-21 15:55:19.052800,175.1387
2021-04-21 15:55:19.068420,183.2321
2021-04-21 15:55:19.084050,184.0712
2021-04-21 15:55:19.099680,177.6898
2021-04-21 15:55:19.115300,165.3242
2021-04-21 15:55:19.130930,149.0768
2021-04-21 15:55:19.146550,131.3964
2021-04-21 15:55:19.162180,114.4787
2021-04-21 15:55:19.177800,99.85352
2021-04-21 15:55:19.193430,88.21759
2021-04-21 15:55:19.209060,79.50348
2021-04-21 15:55:19.224680,73.0813
2021-04-21 15:55:19.240310,68.00928
2021-04-21 15:55:19.255930,63.27789
2021-04-21 15:55:19.271560,58.11023
2021-04-21 15:55:19.287180,52.23584
2021-04-21 15:55:19.302810,46.10715
2021-04-21 15:55:19.318440,40.85785
2021-04-21 15:55:19.334060,37.94733
2021-04-21 15:55:19.349690,38.54819
2021-04-21 15:55:19.365310,42.9321
2021-04-21 15:55:19.380940,50.13104
2021-04-21 15:55:19.396560,58.10065
2021-04-21 15:55:19.412190,64.30545
2021-04-21 15:55:19.427820,66.56436
2021-04-21 15:55:19.443440,63.75232
2021-04-21 15:55:19.459070,56.06342
2021-04-21 15:55:19.474690,44.78528
2021-04-21 15:55:19.490320,31.63382
2021-04-21 15:55:19.505940,18.06787
2021-04-21 15:55:19.521570,4.832794
2021-04-21 15:55:19.537200,-8.041107
2021-04-21 15:55:19.552820,-20.82993
2021-04-21 15:55:19.568450,-33.67203
2021-04-21 15:55:19.584070,-46.29059
2021-04-21 15:55:19.599700,-58.10748
2021-04-21 15:55:19.615320,-68.57758
2021-04-21 15:55:19.630950,-77.57523
2021-04-21 15:55:19.646580,-85.45483
2021-04-21 15:55:19.662200,-92.87637
2021-04-21 15:55:19.677830,-100.3894
2021-04-21 15:55:19.693450,-108.1501
2021-04-21 15:55:19.709080,-115.8074
2021-04-21 15:55:19.724700,-122.7224
2021-04-21 15:55:19.740330,-128.2956
2021-04-21 15:55:19.755960,-132.2104
2021-04-21 15:55:19.771580,-134.5483
2021-04-21 15:55:19.787210,-135.6028
2021-04-21 15:55:19.802830,-135.7052
2021-04-21 15:55:19.818460,-135.0492
2021-04-21 15:55:19.834080,-133.5878
2021-04-21 15:55:19.849710,-131.1547
2021-04-21 15:55:19.865340,-127.5914
2021-04-21 15:55:19.880960,-122.9096
2021-04-21 15:55:19.896590,-117.2979
2021-04-21 15:55:19.912210,-111.0448
2021-04-21 15:55:19.927840,-104.4163
2021-04-21 15:55:19.943460,-97.57446
2021-04-21 15:55:19.959090,-90.57622
2021-04-21 15:55:19.974720,-83.52936
2021-04-21 15:55:19.990340,-76.67607
2021-04-21 15:55:20.005970,-70.41403
2021-04-21 15:55:20.021590,-65.10809
2021-04-21 15:55:20.037220,-60.88786
2021-04-21 15:55:20.052840,-57.50151
2021-04-21 15:55:20.068470,-54.33673
2021-04-21 15:55:20.084100,-50.71289
2021-04-21 15:55:20.099720,-46.14011
2021-04-21 15:55:20.115350,-40.50581
2021-04-21 15:55:20.130970,-34.08173
2021-04-21 15:55:20.146600,-27.32353
2021-04-21 15:55:20.162220,-20.69115
2021-04-21 15:55:20.177850,-14.51714
2021-04-21 15:55:20.193480,-9.044724
2021-04-21 15:55:20.209100,-4.467041
2021-04-21 15:55:20.224730,-0.9838409
2021-04-21 15:55:20.240350,1.234787
2021-04-21 15:55:20.255980,2.138351
2021-04-21 15:55:20.271600,1.839661
2021-04-21 15:55:20.287230,0.602417
2021-04-21 15:55:20.302860,-1.256378
2021-04-21 15:55:20.318480,-3.47229
2021-04-21 15:55:20.334110,-5.821136
2021-04-21 15:55:20.349730,-8.130951
2021-04-21 15:55:20.365360,-10.23624
2021-04-21 15:55:20.380980,-12.00192
2021-04-21 15:55:20.396610,-13.37213
2021-04-21 15:55:20.412240,-14.44244
2021-04-21 15:55:20.427860,-15.42142
2021-04-21 15:55:20.443490,-16.49319
2021-04-21 15:55:20.459110,-17.68512
2021-04-21 15:55:20.474740,-18.78253
2021-04-21 15:55:20.490360,-19.36465
2021-04-21 15:55:20.505990,-18.99664
2021-04-21 15:55:20.521620,-17.43988
2021-04-21 15:55:20.537240,-14.76633
2021-04-21 15:55:20.552870,-11.41318
2021-04-21 15:55:20.568490,-7.989136
2021-04-21 15:55:20.584120,-5.112457
2021-04-21 15:55:20.599740,-3.195679
2021-04-21 15:55:20.615370,-2.330566
2021-04-21 15:55:20.631000,-2.23526
2021-04-21 15:55:20.646620,-2.265961
2021-04-21 15:55:20.662250,-1.574402
2021-04-21 15:55:20.677870,0.7556458
2021-04-21 15:55:20.693500,5.439941
2021-04-21 15:55:20.709120,12.88828
2021-04-21 15:55:20.724750,23.11447
2021-04-21 15:55:20.740380,35.85223
2021-04-21 15:55:20.756000,50.75
2021-04-21 15:55:20.771630,67.56027
2021-04-21 15:55:20.787250,86.18494
2021-04-21 15:55:20.802880,106.458
2021-04-21 15:55:20.818500,127.7553
2021-04-21 15:55:20.834130,148.6085
2021-04-21 15:55:20.849760,166.6323
2021-04-21 15:55:20.865380,178.9982
2021-04-21 15:55:20.881010,183.4482
2021-04-21 15:55:20.896630,179.5252
2021-04-21 15:55:20.912260,169.2364
2021-04-21 15:55:20.927880,156.8145
2021-04-21 15:55:20.943510,147.2718
2021-04-21 15:55:20.959140,144.3845
2021-04-21 15:55:20.974760,148.9216
2021-04-21 15:55:20.990390,158.1346
2021-04-21 15:55:21.006010,166.8186
2021-04-21 15:55:21.021640,169.4504
2021-04-21 15:55:21.037270,162.5302
2021-04-21 15:55:21.052890,145.919
2021-04-21 15:55:21.068520,122.5614
2021-04-21 15:55:21.084140,97.03159
2021-04-21 15:55:21.099770,73.59738
2021-04-21 15:55:21.115390,54.81305
2021-04-21 15:55:21.131020,41.19904
2021-04-21 15:55:21.146650,31.83841
2021-04-21 15:55:21.162270,24.96469
2021-04-21 15:55:21.177900,18.31039
2021-04-21 15:55:21.193520,9.100952
2021-04-21 15:55:21.209150,-5.508575
2021-04-21 15:55:21.224770,-27.26846
2021-04-21 15:55:21.240400,-55.20929
2021-04-21 15:55:21.256030,-84.84839
2021-04-21 15:55:21.271650,-109.1512
2021-04-21 15:55:21.287280,-121.3799
2021-04-21 15:55:21.302900,-118.4539
2021-04-21 15:55:21.318530,-102.8248
2021-04-21 15:55:21.334150,-81.62471
2021-04-21 15:55:21.349780,-63.30916
2021-04-21 15:55:21.365410,-53.70419
2021-04-21 15:55:21.381030,-53.76115
2021-04-21 15:55:21.396660,-60.0507
2021-04-21 15:55:21.412280,-67.55989
2021-04-21 15:55:21.427910,-72.70041
2021-04-21 15:55:21.443530,-74.80424
2021-04-21 15:55:21.459160,-75.4671
2021-04-21 15:55:21.474790,-76.56038
2021-04-21 15:55:21.490410,-78.61549
2021-04-21 15:55:21.506040,-80.50034
2021-04-21 15:55:21.521660,-80.51463
2021-04-21 15:55:21.537290,-77.78404
2021-04-21 15:55:21.552910,-72.95844
2021-04-21 15:55:21.568540,-68.03996
2021-04-21 15:55:21.584170,-65.22517
2021-04-21 15:55:21.599790,-65.69319
2021-04-21 15:55:21.615420,-69.02437
2021-04-21 15:55:21.631040,-73.47978
2021-04-21 15:55:21.646670,-76.8685
2021-04-21 15:55:21.662290,-77.67871
2021-04-21 15:55:21.677920,-75.73521
2021-04-21 15:55:21.693550,-72.19316
2021-04-21 15:55:21.709170,-68.96886
2021-04-21 15:55:21.724800,-67.79549
2021-04-21 15:55:21.740420,-69.47958
2021-04-21 15:55:21.756050,-73.65271
2021-04-21 15:55:21.771670,-79.03476
2021-04-21 15:55:21.787300,-84.07561
2021-04-21 15:55:21.802930,-87.57001
2021-04-21 15:55:21.818550,-88.93526
2021-04-21 15:55:21.834180,-88.07654
2021-04-21 15:55:21.849800,-85.10281
2021-04-21 15:55:21.881050,-72.47997
2021-04-21 15:55:21.896680,-62.52132
2021-04-21 15:55:21.912310,-50.36833
2021-04-21 15:55:21.927930,-36.82605
2021-04-21 15:55:21.943560,-23.07878
2021-04-21 15:55:21.959180,-10.34636
2021-04-21 15:55:21.974810,0.5511322
2021-04-21 15:55:21.990430,9.340652
2021-04-21 15:55:22.006060,16.25679
2021-04-21 15:55:22.021690,21.74422
2021-04-21 15:55:22.037310,26.1925
2021-04-21 15:55:22.052940,29.75711
2021-04-21 15:55:22.068560,32.42039
2021-04-21 15:55:22.084190,34.12146
2021-04-21 15:55:22.099810,34.89162
2021-04-21 15:55:22.115440,34.89038
2021-04-21 15:55:22.131070,34.33656
2021-04-21 15:55:22.146690,33.42819
2021-04-21 15:55:22.162320,32.22685
2021-04-21 15:55:22.177940,30.74001
2021-04-21 15:55:22.193570,28.93077
2021-04-21 15:55:22.209190,26.84505
2021-04-21 15:55:22.224820,24.60663
2021-04-21 15:55:22.240450,22.44162
2021-04-21 15:55:22.256070,20.55435
2021-04-21 15:55:22.271700,19.0679
2021-04-21 15:55:22.287320,17.93164
2021-04-21 15:55:22.302950,16.91013
2021-04-21 15:55:22.318570,15.62903
2021-04-21 15:55:22.334200,13.69778
2021-04-21 15:55:22.349830,10.8555
2021-04-21 15:55:22.365450,7.110107
2021-04-21 15:55:22.381080,2.781555
2021-04-21 15:55:22.396700,-1.569977
2021-04-21 15:55:22.412330,-5.359436
2021-04-21 15:55:22.427950,-8.197113
2021-04-21 15:55:22.443580,-10.08865
2021-04-21 15:55:22.459210,-11.43607
2021-04-21 15:55:22.474830,-12.92175
2021-04-21 15:55:22.490460,-15.20847
2021-04-21 15:55:22.506080,-18.71164
2021-04-21 15:55:22.521710,-23.3363
2021-04-21 15:55:22.537330,-28.40906
2021-04-21 15:55:22.552960,-32.82651
2021-04-21 15:55:22.568590,-35.33527
2021-04-21 15:55:22.584210,-34.97711
2021-04-21 15:55:22.599840,-31.42761
2021-04-21 15:55:22.615460,-25.15182
2021-04-21 15:55:22.631090,-17.27213
2021-04-21 15:55:22.646710,-9.179321
2021-04-21 15:55:22.662340,-2.100861
2021-04-21 15:55:22.677970,3.279236
2021-04-21 15:55:22.693590,6.920319
2021-04-21 15:55:22.709220,9.284332
2021-04-21 15:55:22.724840,11.02081
2021-04-21 15:55:22.740470,12.66711
2021-04-21 15:55:22.756090,14.50113
2021-04-21 15:55:22.771720,16.50317
2021-04-21 15:55:22.787350,18.44629
2021-04-21 15:55:22.802970,20.08279
2021-04-21 15:55:22.818600,21.20053
2021-04-21 15:55:22.834220,21.75421
2021-04-21 15:55:22.849850,21.80783
2021-04-21 15:55:22.865470,21.58554
2021-04-21 15:55:22.881100,21.4472
2021-04-21 15:55:22.896730,21.92914
2021-04-21 15:55:22.912350,23.67188
2021-04-21 15:55:22.927980,27.25937
2021-04-21 15:55:22.943600,33.00357
2021-04-21 15:55:22.959230,40.69302
2021-04-21 15:55:22.974850,49.53326
2021-04-21 15:55:22.990480,58.30792
2021-04-21 15:55:23.006110,65.74246
2021-04-21 15:55:23.021730,70.90128
2021-04-21 15:55:23.037360,73.44284
2021-04-21 15:55:23.052980,73.63971
2021-04-21 15:55:23.068610,72.1557
2021-04-21 15:55:23.084230,69.76138
2021-04-21 15:55:23.099860,67.01462
2021-04-21 15:55:23.115490,64.26373
2021-04-21 15:55:23.131110,61.56702
2021-04-21 15:55:23.146740,58.90149
2021-04-21 15:55:23.162360,56.16263
2021-04-21 15:55:23.177990,53.24902
2021-04-21 15:55:23.193610,50.05429
2021-04-21 15:55:23.209240,46.44049
2021-04-21 15:55:23.224870,42.29691
2021-04-21 15:55:23.240490,37.50803
2021-04-21 15:55:23.256120,32.11777
2021-04-21 15:55:23.271740,26.32733
2021-04-21 15:55:23.287370,20.56018
2021-04-21 15:55:23.302990,15.40634
2021-04-21 15:55:23.318620,11.47791
2021-04-21 15:55:23.334250,9.278564
2021-04-21 15:55:23.349870,9.012512
2021-04-21 15:55:23.365500,10.52515
2021-04-21 15:55:23.381120,13.29062
2021-04-21 15:55:23.396750,16.59543
2021-04-21 15:55:23.412370,19.61398
2021-04-21 15:55:23.428000,21.67197
2021-04-21 15:55:23.443630,22.34457
2021-04-21 15:55:23.459250,21.57275
2021-04-21 15:55:23.474880,19.68698
2021-04-21 15:55:23.490500,17.3157
2021-04-21 15:55:23.506130,15.25641
2021-04-21 15:55:23.521750,14.26498
2021-04-21 15:55:23.537380,14.92133
2021-04-21 15:55:23.553010,17.40857
2021-04-21 15:55:23.568630,21.42844
2021-04-21 15:55:23.584260,26.17068
2021-04-21 15:55:23.599880,30.35696
2021-04-21 15:55:23.615510,32.54633
2021-04-21 15:55:23.631140,31.49796
2021-04-21 15:55:23.646760,26.55484
2021-04-21 15:55:23.662390,17.79251
2021-04-21 15:55:23.678010,5.964203
2021-04-21 15:55:23.693640,-7.844055
2021-04-21 15:55:23.709260,-22.64328
2021-04-21 15:55:23.724890,-37.78061
2021-04-21 15:55:23.740520,-52.93481
2021-04-21 15:55:23.756140,-67.76636
2021-04-21 15:55:23.771770,-81.54471
2021-04-21 15:55:23.787390,-92.88843
2021-04-21 15:55:23.803020,-99.9491
2021-04-21 15:55:23.818640,-100.9047
2021-04-21 15:55:23.834270,-94.65686
2021-04-21 15:55:23.849900,-81.33984
2021-04-21 15:55:23.865520,-62.40231
2021-04-21 15:55:23.881150,-40.25186
2021-04-21 15:55:23.896770,-17.57956
2021-04-21 15:55:23.912400,3.330872
2021-04-21 15:55:23.928020,21.09204
2021-04-21 15:55:23.943650,35.31201
2021-04-21 15:55:23.959280,46.3797
2021-04-21 15:55:23.974900,55.09503
2021-04-21 15:55:23.990530,62.27115
2021-04-21 15:55:24.006150,68.52991
2021-04-21 15:55:24.021780,74.21793
2021-04-21 15:55:24.037400,79.49161
2021-04-21 15:55:24.053030,84.40216
2021-04-21 15:55:24.068660,88.99133
2021-04-21 15:55:24.084280,93.29184
2021-04-21 15:55:24.099910,97.22205
2021-04-21 15:55:24.115530,100.4468
2021-04-21 15:55:24.131160,102.3067
2021-04-21 15:55:24.146780,101.9729
2021-04-21 15:55:24.162410,98.77345
2021-04-21 15:55:24.178040,92.54851
2021-04-21 15:55:24.193660,83.83894
2021-04-21 15:55:24.209290,73.66217
2021-04-21 15:55:24.224910,63.09636
2021-04-21 15:55:24.240540,52.83124
2021-04-21 15:55:24.256160,42.91911
2021-04-21 15:55:24.271790,32.95462
2021-04-21 15:55:24.287420,22.46248
2021-04-21 15:55:24.303040,11.30176
2021-04-21 15:55:24.318670,-0.1421356
2021-04-21 15:55:24.334290,-11.08421
2021-04-21 15:55:24.349920,-20.62698
2021-04-21 15:55:24.365540,-27.99622
2021-04-21 15:55:24.381170,-32.60889
2021-04-21 15:55:24.396800,-34.03098
2021-04-21 15:55:24.412420,-31.93819
2021-04-21 15:55:24.428050,-26.16741
2021-04-21 15:55:24.443670,-16.95111
2021-04-21 15:55:24.459300,-5.078926
2021-04-21 15:55:24.474920,8.096367
2021-04-21 15:55:24.490550,20.94569
2021-04-21 15:55:24.506180,32.02963
2021-04-21 15:55:24.521800,40.5145
2021-04-21 15:55:24.537430,46.30917
2021-04-21 15:55:24.553050,49.85941
2021-04-21 15:55:24.568680,51.65949
2021-04-21 15:55:24.584300,51.78087
2021-04-21 15:55:24.599930,49.70332
2021-04-21 15:55:24.615560,44.5446
2021-04-21 15:55:24.631180,35.43394
2021-04-21 15:55:24.646810,21.97742
2021-04-21 15:55:24.662430,4.419212
2021-04-21 15:55:24.678060,-16.40653
2021-04-21 15:55:24.693680,-39.33925
2021-04-21 15:55:24.709310,-63.10456
2021-04-21 15:55:24.724940,-86.50404
2021-04-21 15:55:24.740560,-108.4573
2021-04-21 15:55:24.756190,-128.023
2021-04-21 15:55:24.771810,-144.4182
2021-04-21 15:55:24.787440,-156.976
2021-04-21 15:55:24.803060,-165.0916
2021-04-21 15:55:24.818690,-168.1501
2021-04-21 15:55:24.834320,-165.5241
2021-04-21 15:55:24.849940,-156.7924
2021-04-21 15:55:24.865570,-142.0697
2021-04-21 15:55:24.881190,-122.3228
2021-04-21 15:55:24.896820,-99.45384
2021-04-21 15:55:24.912440,-76.09073
2021-04-21 15:55:24.928070,-55.03096
2021-04-21 15:55:24.943700,-38.66993
2021-04-21 15:55:24.959320,-28.48213
2021-04-21 15:55:24.974950,-24.83179
2021-04-21 15:55:24.990570,-27.00587
2021-04-21 15:55:25.006200,-33.4738
2021-04-21 15:55:25.021820,-42.22893
2021-04-21 15:55:25.037450,-51.13899
2021-04-21 15:55:25.053080,-58.18095
2021-04-21 15:55:25.068700,-61.70251
2021-04-21 15:55:25.084330,-60.5493
2021-04-21 15:55:25.099950,-54.1702
2021-04-21 15:55:25.115580,-42.59853
2021-04-21 15:55:25.131200,-26.35283
2021-04-21 15:55:25.146830,-6.374893
2021-04-21 15:55:25.178080,39.52351
2021-04-21 15:55:25.193710,62.40071
2021-04-21 15:55:25.209330,83.271
2021-04-21 15:55:25.224960,101.0204
2021-04-21 15:55:25.240580,115.0684
2021-04-21 15:55:25.256210,125.3771
2021-04-21 15:55:25.271840,132.3733
2021-04-21 15:55:25.287460,136.7421
2021-04-21 15:55:25.303090,139.19
2021-04-21 15:55:25.318710,140.278
2021-04-21 15:55:25.334340,140.3531
2021-04-21 15:55:25.349960,139.5211
2021-04-21 15:55:25.365590,137.7132
2021-04-21 15:55:25.381220,134.846
2021-04-21 15:55:25.396840,130.953
2021-04-21 15:55:25.412470,126.3332
2021-04-21 15:55:25.428090,121.6329
2021-04-21 15:55:25.443720,117.6671
2021-04-21 15:55:25.459340,115.0935
2021-04-21 15:55:25.474970,113.9898
2021-04-21 15:55:25.490600,113.6389
2021-04-21 15:55:25.506220,112.7178
2021-04-21 15:55:25.521850,109.8842
2021-04-21 15:55:25.537470,104.3459
2021-04-21 15:55:25.553100,96.28458
2021-04-21 15:55:25.568720,86.69431
2021-04-21 15:55:25.584350,76.8605
2021-04-21 15:55:25.599980,67.67303
2021-04-21 15:55:25.615600,59.22025
2021-04-21 15:55:25.631230,50.83588
2021-04-21 15:55:25.646850,41.42331
2021-04-21 15:55:25.662480,29.9664
2021-04-21 15:55:25.678100,15.86627
2021-04-21 15:55:25.693730,-0.9405823
2021-04-21 15:55:25.709360,-19.93747
2021-04-21 15:55:25.724980,-40.1228
2021-04-21 15:55:25.740610,-60.05063
2021-04-21 15:55:25.756230,-77.97742
2021-04-21 15:55:25.771860,-92.23203
2021-04-21 15:55:25.787480,-101.6483
2021-04-21 15:55:25.803110,-105.9396
2021-04-21 15:55:25.818740,-105.8038
2021-04-21 15:55:25.834360,-102.6201
2021-04-21 15:55:25.849990,-97.88788
2021-04-21 15:55:25.865610,-92.79004
2021-04-21 15:55:25.881240,-87.95874
2021-04-21 15:55:25.896870,-83.64661
2021-04-21 15:55:25.912490,-80.11884
2021-04-21 15:55:25.928120,-77.83582
2021-04-21 15:55:25.943740,-77.40375
2021-04-21 15:55:25.959370,-79.24408
2021-04-21 15:55:25.974990,-83.27301
2021-04-21 15:55:25.990620,-88.79468
2021-04-21 15:55:26.006250,-94.70837
2021-04-21 15:55:26.021870,-99.85834
2021-04-21 15:55:26.037500,-103.447
2021-04-21 15:55:26.053120,-105.2498
2021-04-21 15:55:26.068750,-105.5532
2021-04-21 15:55:26.084370,-104.9708
2021-04-21 15:55:26.100000,-104.1666
2021-04-21 15:55:26.115630,-103.633
2021-04-21 15:55:26.131250,-103.4977
2021-04-21 15:55:26.146880,-103.5687
2021-04-21 15:55:26.162500,-103.4201
2021-04-21 15:55:26.178130,-102.6089
2021-04-21 15:55:26.193750,-100.9313
2021-04-21 15:55:26.209380,-98.57977
2021-04-21 15:55:26.225010,-96.13629
2021-04-21 15:55:26.240630,-94.27045
2021-04-21 15:55:26.256260,-93.40479
2021-04-21 15:55:26.271880,-93.48077
2021-04-21 15:55:26.287510,-94.03528
2021-04-21 15:55:26.303130,-94.49426
2021-04-21 15:55:26.318760,-94.59442
2021-04-21 15:55:26.334390,-94.59534
2021-04-21 15:55:26.350010,-95.18451
2021-04-21 15:55:26.365640,-97.2038
2021-04-21 15:55:26.381260,-101.2082
2021-04-21 15:55:26.396890,-107.2077
2021-04-21 15:55:26.412510,-114.6469
2021-04-21 15:55:26.428140,-122.6068
2021-04-21 15:55:26.443770,-130.1187
2021-04-21 15:55:26.459390,-136.4073
2021-04-21 15:55:26.475020,-140.9376
2021-04-21 15:55:26.490640,-143.3262
2021-04-21 15:55:26.506270,-143.1586
2021-04-21 15:55:26.521890,-139.8586
2021-04-21 15:55:26.537520,-132.7739
2021-04-21 15:55:26.553150,-121.4003
2021-04-21 15:55:26.568770,-105.6119
2021-04-21 15:55:26.584400,-85.86237
2021-04-21 15:55:26.600020,-63.03784
2021-04-21 15:55:26.615650,-38.229
2021-04-21 15:55:26.631270,-12.50049
2021-04-21 15:55:26.646900,13.01959
2021-04-21 15:55:26.662530,36.98376
2021-04-21 15:55:26.678150,57.72504
2021-04-21 15:55:26.693780,73.52814
2021-04-21 15:55:26.709400,83.32343
2021-04-21 15:55:26.725030,87.30975
2021-04-21 15:55:26.740650,87.24646
2021-04-21 15:55:26.756280,85.95081
2021-04-21 15:55:26.771910,86.25671
2021-04-21 15:55:26.787530,89.92596
2021-04-21 15:55:26.803160,97.20313
2021-04-21 15:55:26.818780,107.0475
2021-04-21 15:55:26.834410,117.8854
2021-04-21 15:55:26.850030,128.3005
2021-04-21 15:55:26.865660,137.2335
2021-04-21 15:55:26.881290,143.8849
2021-04-21 15:55:26.896910,147.4682
2021-04-21 15:55:26.912540,147.1996
2021-04-21 15:55:26.928160,142.581
2021-04-21 15:55:26.943790,133.7712
2021-04-21 15:55:26.959410,121.7118
2021-04-21 15:55:26.975040,107.9236
2021-04-21 15:55:26.990670,94.20905
2021-04-21 15:55:27.006290,82.21436
2021-04-21 15:55:27.021920,73.15973
2021-04-21 15:55:27.037540,67.64032
2021-04-21 15:55:27.053170,65.51636
2021-04-21 15:55:27.068790,66.02734
2021-04-21 15:55:27.084420,68.03217
2021-04-21 15:55:27.100050,70.42322
2021-04-21 15:55:27.115670,72.53534
2021-04-21 15:55:27.131300,74.29565
2021-04-21 15:55:27.146920,75.97009
2021-04-21 15:55:27.162550,77.66382
2021-04-21 15:55:27.178170,78.8526
2021-04-21 15:55:27.193800,78.29745
2021-04-21 15:55:27.209430,74.42017
2021-04-21 15:55:27.225050,65.93164
2021-04-21 15:55:27.240680,52.56232
2021-04-21 15:55:27.256300,35.34363
2021-04-21 15:55:27.271930,16.47137
2021-04-21 15:55:27.287550,-1.35321
2021-04-21 15:55:27.303180,-15.72168
2021-04-21 15:55:27.334430,-29.74725
2021-04-21 15:55:27.350060,-30.14331
2021-04-21 15:55:27.365680,-27.68079
2021-04-21 15:55:27.381310,-23.3623
2021-04-21 15:55:27.396930,-17.50946
2021-04-21 15:55:27.412560,-9.848694
2021-04-21 15:55:27.428190,0.1060791
2021-04-21 15:55:27.443810,12.62433
2021-04-21 15:55:27.459440,27.55566
2021-04-21 15:55:27.475060,44.44604
2021-04-21 15:55:27.490690,62.70087
2021-04-21 15:55:27.506310,81.51849
2021-04-21 15:55:27.521940,99.47705
2021-04-21 15:55:27.537570,114.2895
2021-04-21 15:55:27.553190,122.9668
2021-04-21 15:55:27.568820,122.8177
2021-04-21 15:55:27.584440,112.7755
2021-04-21 15:55:27.600070,94.29706
2021-04-21 15:55:27.615690,71.2243
2021-04-21 15:55:27.631320,48.43164
2021-04-21 15:55:27.646950,29.96417
2021-04-21 15:55:27.662570,17.58844
2021-04-21 15:55:27.678200,10.52307
2021-04-21 15:55:27.693820,6.26178
2021-04-21 15:55:27.709450,2.069275
2021-04-21 15:55:27.725070,-3.865112
2021-04-21 15:55:27.740700,-12.05786
2021-04-21 15:55:27.756330,-22.09741
2021-04-21 15:55:27.771950,-33.34167
2021-04-21 15:55:27.787580,-45.41132
2021-04-21 15:55:27.803200,-58.20795
2021-04-21 15:55:27.818830,-71.65613
2021-04-21 15:55:27.834450,-85.38062
2021-04-21 15:55:27.850080,-98.60852
2021-04-21 15:55:27.865710,-110.2227
2021-04-21 15:55:27.881330,-119.0327
2021-04-21 15:55:27.896960,-124.1344
2021-04-21 15:55:27.912580,-125.1776
2021-04-21 15:55:27.928210,-122.5508
2021-04-21 15:55:27.943830,-117.3117
2021-04-21 15:55:27.959460,-110.887
2021-04-21 15:55:27.975090,-104.5926
2021-04-21 15:55:27.990710,-99.18835
2021-04-21 15:55:28.006340,-94.62921
2021-04-21 15:55:28.021960,-90.21436
2021-04-21 15:55:28.037590,-84.93079
2021-04-21 15:55:28.053220,-77.99829
2021-04-21 15:55:28.068840,-69.18494
2021-04-21 15:55:28.084470,-58.82635
2021-04-21 15:55:28.100090,-47.47723
2021-04-21 15:55:28.115720,-35.49402
2021-04-21 15:55:28.131340,-22.77271
2021-04-21 15:55:28.146970,-8.851563
2021-04-21 15:55:28.162600,6.499023
2021-04-21 15:55:28.178220,22.74951
2021-04-21 15:55:28.193850,38.29108
2021-04-21 15:55:28.209470,50.71783
2021-04-21 15:55:28.225100,57.73517
2021-04-21 15:55:28.240720,58.11176
2021-04-21 15:55:28.256350,52.37769
2021-04-21 15:55:28.271980,42.64594
2021-04-21 15:55:28.287600,31.79846
2021-04-21 15:55:28.303230,22.29657
2021-04-21 15:55:28.318850,15.31195
2021-04-21 15:55:28.334480,10.47461
2021-04-21 15:55:28.350100,6.361938
2021-04-21 15:55:28.365730,1.344666
2021-04-21 15:55:28.381360,-5.63385
2021-04-21 15:55:28.396980,-14.73016
2021-04-21 15:55:28.412610,-25.30359
2021-04-21 15:55:28.428230,-36.26123
2021-04-21 15:55:28.443860,-46.41437
2021-04-21 15:55:28.475110,-60.56897
2021-04-21 15:55:28.490740,-63.69403
2021-04-21 15:55:28.506360,-64.59705
2021-04-21 15:55:28.521990,-64.42316
2021-04-21 15:55:28.537610,-64.57635
2021-04-21 15:55:28.553240,-66.08881
2021-04-21 15:55:28.568860,-68.92224
2021-04-21 15:55:28.584490,-71.74274
2021-04-21 15:55:28.600120,-72.35669
2021-04-21 15:55:28.615740,-68.67926
2021-04-21 15:55:28.631370,-59.75745
2021-04-21 15:55:28.646990,-46.27539
2021-04-21 15:55:28.662620,-30.30115
2021-04-21 15:55:28.678240,-14.4754
2021-04-21 15:55:28.693870,-1.085449
2021-04-21 15:55:28.709500,8.52533
2021-04-21 15:55:28.725120,14.16272
2021-04-21 15:55:28.740750,16.70679
2021-04-21 15:55:28.756370,17.93549
2021-04-21 15:55:28.772000,20.12823
2021-04-21 15:55:28.787620,25.44818
2021-04-21 15:55:28.803250,35.01123
2021-04-21 15:55:28.818880,48.12573
2021-04-21 15:55:28.834500,62.11682
2021-04-21 15:55:28.850130,73.16809
2021-04-21 15:55:28.865750,77.83398
2021-04-21 15:55:28.881380,74.57422
2021-04-21 15:55:28.897000,64.34601
2021-04-21 15:55:28.912630,49.89404
2021-04-21 15:55:28.928260,34.17792
2021-04-21 15:55:28.943880,18.87372
2021-04-21 15:55:28.959510,3.845337
2021-04-21 15:55:28.975130,-12.15057
2021-04-21 15:55:28.990760,-29.95892
2021-04-21 15:55:29.006380,-48.75977
2021-04-21 15:55:29.022010,-65.71216
2021-04-21 15:55:29.037640,-76.76416
2021-04-21 15:55:29.053260,-78.20099
2021-04-21 15:55:29.068890,-68.08942
2021-04-21 15:55:29.084510,-47.02899
2021-04-21 15:55:29.100140,-17.96906
2021-04-21 15:55:29.115760,14.84216
2021-04-21 15:55:29.131390,47.13556
2021-04-21 15:55:29.147020,75.74725
2021-04-21 15:55:29.162640,99.22778
2021-04-21 15:55:29.178270,117.8224
2021-04-21 15:55:29.193890,132.8538
2021-04-21 15:55:29.209520,145.7723
2021-04-21 15:55:29.225140,157.1407
2021-04-21 15:55:29.240770,165.9153
2021-04-21 15:55:29.256400,169.3973
2021-04-21 15:55:29.272020,163.9727
2021-04-21 15:55:29.287650,146.4606
2021-04-21 15:55:29.303270,115.6964
2021-04-21 15:55:29.318900,73.59839
2021-04-21 15:55:29.334520,25.10596
2021-04-21 15:55:29.350150,-23.16278
2021-04-21 15:55:29.365780,-65.03918
2021-04-21 15:55:29.381400,-96.74829
2021-04-21 15:55:29.397030,-117.7224
2021-04-21 15:55:29.412650,-129.942
2021-04-21 15:55:29.428280,-136.2888
2021-04-21 15:55:29.443900,-138.9443
2021-04-21 15:55:29.459530,-138.7116
2021-04-21 15:55:29.475160,-135.4921
2021-04-21 15:55:29.490780,-129.3317
2021-04-21 15:55:29.506410,-121.2782
2021-04-21 15:55:29.522030,-113.2858
2021-04-21 15:55:29.537660,-107.2968
2021-04-21 15:55:29.553280,-104.1937
2021-04-21 15:55:29.568910,-103.2952
2021-04-21 15:55:29.584540,-102.8658
2021-04-21 15:55:29.600160,-101.2633
2021-04-21 15:55:29.615790,-98.00891
2021-04-21 15:55:29.631410,-94.09314
2021-04-21 15:55:29.647040,-91.42627
2021-04-21 15:55:29.662660,-91.73413
2021-04-21 15:55:29.678290,-95.61969
2021-04-21 15:55:29.693920,-102.2094
2021-04-21 15:55:29.709540,-109.5284
2021-04-21 15:55:29.725170,-115.3323
2021-04-21 15:55:29.740790,-117.9932
2021-04-21 15:55:29.756420,-116.936
2021-04-21 15:55:29.772040,-112.5726
2021-04-21 15:55:29.787670,-105.9717
2021-04-21 15:55:29.803300,-98.32153
2021-04-21 15:55:29.818920,-90.71912
2021-04-21 15:55:29.834550,-84.07935
2021-04-21 15:55:29.850170,-79.09155
2021-04-21 15:55:29.865800,-76.06488
2021-04-21 15:55:29.881420,-74.56293
2021-04-21 15:55:29.897050,-73.26166
2021-04-21 15:55:29.912680,-70.23926
2021-04-21 15:55:29.928300,-63.79541
2021-04-21 15:55:29.943930,-53.35352
2021-04-21 15:55:29.959550,-39.97949
2021-04-21 15:55:29.975180,-26.0434
2021-04-21 15:55:29.990800,-14.00977
2021-04-21 15:55:30.006430,-5.26709
2021-04-21 15:55:30.022060,0.5079956
2021-04-21 15:55:30.037680,5.005066
2021-04-21 15:55:30.053310,10.11285
2021-04-21 15:55:30.068930,16.92517
2021-04-21 15:55:30.084560,25.42023
2021-04-21 15:55:30.100180,34.92731
2021-04-21 15:55:30.115810,44.90686
2021-04-21 15:55:30.131440,55.43359
2021-04-21 15:55:30.147060,66.89496
2021-04-21 15:55:30.162690,79.33545
2021-04-21 15:55:30.178310,91.87463
2021-04-21 15:55:30.193940,102.7953
2021-04-21 15:55:30.209560,110.1678
2021-04-21 15:55:30.225190,112.8406
2021-04-21 15:55:30.240820,110.9359
2021-04-21 15:55:30.256440,105.7962
2021-04-21 15:55:30.272070,99.32999
2021-04-21 15:55:30.287690,93.19385
2021-04-21 15:55:30.303320,88.18726
2021-04-21 15:55:30.318940,84.23523
2021-04-21 15:55:30.334570,80.70761
2021-04-21 15:55:30.350200,77.01852
2021-04-21 15:55:30.365820,72.95306
2021-04-21 15:55:30.381450,68.54346
2021-04-21 15:55:30.397070,63.6803
2021-04-21 15:55:30.412700,57.65344
2021-04-21 15:55:30.428320,49.10947
2021-04-21 15:55:30.443950,36.65878
2021-04-21 15:55:30.459580,19.85623
2021-04-21 15:55:30.475200,-0.05218506
2021-04-21 15:55:30.490830,-20.16571
2021-04-21 15:55:30.506450,-36.97034
2021-04-21 15:55:30.522080,-47.7778
2021-04-21 15:55:30.537700,-51.80267
2021-04-21 15:55:30.553330,-50.28201
2021-04-21 15:55:30.568960,-45.51636
2021-04-21 15:55:30.584580,-39.59274
2021-04-21 15:55:30.600210,-33.5098
2021-04-21 15:55:30.615830,-27.10727
2021-04-21 15:55:30.631460,-19.68274
2021-04-21 15:55:30.647080,-10.69363
2021-04-21 15:55:30.678340,11.55771
2021-04-21 15:55:30.693960,23.7287
2021-04-21 15:55:30.709590,35.65399
2021-04-21 15:55:30.725210,46.6105
2021-04-21 15:55:30.740840,55.88702
2021-04-21 15:55:30.756470,62.96463
2021-04-21 15:55:30.772090,67.70824
2021-04-21 15:55:30.787720,70.47842
2021-04-21 15:55:30.803340,71.92667
2021-04-21 15:55:30.818970,72.60538
2021-04-21 15:55:30.834590,72.62762
2021-04-21 15:55:30.850220,71.64886
2021-04-21 15:55:30.865850,69.24092
2021-04-21 15:55:30.881470,65.26906
2021-04-21 15:55:30.897100,60.09073
2021-04-21 15:55:30.912720,54.34349
2021-04-21 15:55:30.928350,48.52631
2021-04-21 15:55:30.943970,42.7222
2021-04-21 15:55:30.959600,36.64752
2021-04-21 15:55:30.975230,29.9897
2021-04-21 15:55:30.990850,22.78374
2021-04-21 15:55:31.006480,15.63174
2021-04-21 15:55:31.022100,9.421844
2021-04-21 15:55:31.037730,4.943253
2021-04-21 15:55:31.053350,2.28685
2021-04-21 15:55:31.068980,0.7044067
2021-04-21 15:55:31.084610,-1.258835
2021-04-21 15:55:31.100230,-5.214813
2021-04-21 15:55:31.115860,-12.25455
2021-04-21 15:55:31.131480,-22.42885
2021-04-21 15:55:31.147110,-34.63231
2021-04-21 15:55:31.162730,-46.9789
2021-04-21 15:55:31.178360,-57.37415
2021-04-21 15:55:31.193990,-64.22723
2021-04-21 15:55:31.209610,-66.82898
2021-04-21 15:55:31.225240,-65.4276
2021-04-21 15:55:31.240860,-60.97925
2021-04-21 15:55:31.256490,-54.7196
2021-04-21 15:55:31.272110,-47.79297
2021-04-21 15:55:31.287740,-41.01007
2021-04-21 15:55:31.303370,-34.8082
2021-04-21 15:55:31.318990,-29.33746
2021-04-21 15:55:31.334620,-24.55647
2021-04-21 15:55:31.350240,-20.36037
2021-04-21 15:55:31.365870,-16.64329
2021-04-21 15:55:31.381490,-13.31928
2021-04-21 15:55:31.397120,-10.3327
2021-04-21 15:55:31.412750,-7.634933
2021-04-21 15:55:31.428370,-5.189102
2021-04-21 15:55:31.444000,-3.007927
2021-04-21 15:55:31.459620,-1.119049
2021-04-21 15:55:31.475250,0.4377213
2021-04-21 15:55:31.490870,1.627136
2021-04-21 15:55:31.506500,2.471142
2021-04-21 15:55:31.522130,3.046192
2021-04-21 15:55:31.537750,3.448612
2021-04-21 15:55:31.553380,3.775276
2021-04-21 15:55:31.569000,4.101254
2021-04-21 15:55:31.584630,4.44648
2021-04-21 15:55:31.600250,4.817053
2021-04-21 15:55:31.615880,5.157175
2021-04-21 15:55:31.631510,5.286686
2021-04-21 15:55:31.647130,4.924134
2021-04-21 15:55:31.662760,3.768689
2021-04-21 15:55:31.678380,1.645551
2021-04-21 15:55:31.694010,-1.332866
2021-04-21 15:55:31.709630,-4.744383
2021-04-21 15:55:31.725260,-7.976484
2021-04-21 15:55:31.740890,-10.4707
2021-04-21 15:55:31.756510,-11.99723
2021-04-21 15:55:31.772140,-12.74865
2021-04-21 15:55:31.787760,-13.27052
2021-04-21 15:55:31.803390,-14.25581
2021-04-21 15:55:31.819010,-16.33644
2021-04-21 15:55:31.834640,-19.88529
2021-04-21 15:55:31.850270,-24.89241
2021-04-21 15:55:31.865890,-30.91233
2021-04-21 15:55:31.881520,-37.02615
2021-04-21 15:55:31.897140,-41.95958
2021-04-21 15:55:31.912770,-44.30914
2021-04-21 15:55:31.928390,-42.94785
2021-04-21 15:55:31.944020,-37.48529
2021-04-21 15:55:31.959650,-28.5205
2021-04-21 15:55:31.975270,-17.50583
2021-04-21 15:55:31.990900,-6.320259
2021-04-21 15:55:32.006520,3.495834
2021-04-21 15:55:32.022150,11.24847
2021-04-21 15:55:32.037770,17.24089
2021-04-21 15:55:32.053400,22.57887
2021-04-21 15:55:32.069030,28.61783
2021-04-21 15:55:32.084650,36.38908
2021-04-21 15:55:32.100280,46.2182
2021-04-21 15:55:32.115900,57.58247
2021-04-21 15:55:32.131530,69.32545
2021-04-21 15:55:32.147150,80.04816
2021-04-21 15:55:32.162780,88.60751
2021-04-21 15:55:32.178410,94.44907
2021-04-21 15:55:32.194030,97.70886
2021-04-21 15:55:32.209660,99.01926
2021-04-21 15:55:32.225280,99.20645
2021-04-21 15:55:32.240910,98.92336
2021-04-21 15:55:32.256530,98.56641
2021-04-21 15:55:32.272160,98.28835
2021-04-21 15:55:32.287790,98.02592
2021-04-21 15:55:32.303410,97.35167
2021-04-21 15:55:32.319040,95.11339
2021-04-21 15:55:32.334660,89.33794
2021-04-21 15:55:32.350290,77.69484
2021-04-21 15:55:32.365910,58.52411
2021-04-21 15:55:32.381540,32.01689
2021-04-21 15:55:32.397170,0.7890472
2021-04-21 15:55:32.412790,-30.72694
2021-04-21 15:55:32.428420,-57.81706
2021-04-21 15:55:32.444040,-77.21599
2021-04-21 15:55:32.459670,-88.12228
2021-04-21 15:55:32.475290,-91.89108
2021-04-21 15:55:32.490920,-90.79385
2021-04-21 15:55:32.506550,-86.57303
2021-04-21 15:55:32.522170,-79.80078
2021-04-21 15:55:32.537800,-70.26556
2021-04-21 15:55:32.553420,-57.9971
2021-04-21 15:55:32.569050,-44.06079
2021-04-21 15:55:32.584670,-30.5947
2021-04-21 15:55:32.600300,-20.02371
2021-04-21 15:55:32.615930,-13.98502
2021-04-21 15:55:32.631550,-12.69571
2021-04-21 15:55:32.647180,-15.10519
2021-04-21 15:55:32.662800,-19.62088
2021-04-21 15:55:32.678430,-24.89517
2021-04-21 15:55:32.694050,-30.29993
2021-04-21 15:55:32.709680,-35.76822
2021-04-21 15:55:32.725310,-41.35944
2021-04-21 15:55:32.740930,-46.79529
2021-04-21 15:55:32.756560,-51.39655
2021-04-21 15:55:32.772180,-54.36313
2021-04-21 15:55:32.787810,-55.16635
2021-04-21 15:55:32.803430,-53.77859
2021-04-21 15:55:32.819060,-50.65393
2021-04-21 15:55:32.834690,-46.39658
2021-04-21 15:55:32.850310,-41.41055
2021-04-21 15:55:32.865940,-35.81726
2021-04-21 15:55:32.881560,-29.56122
2021-04-21 15:55:32.912820,-15.34747
2021-04-21 15:55:32.928440,-8.205261
2021-04-21 15:55:32.944070,-1.855316
2021-04-21 15:55:32.959690,3.248871
2021-04-21 15:55:32.975320,6.975464
2021-04-21 15:55:32.990940,9.485687
2021-04-21 15:55:33.006570,11.08969
2021-04-21 15:55:33.022200,12.0416
2021-04-21 15:55:33.037820,12.53018
2021-04-21 15:55:33.053450,12.76202
2021-04-21 15:55:33.069070,13.1554
2021-04-21 15:55:33.084700,14.40991
2021-04-21 15:55:33.100320,17.25211
2021-04-21 15:55:33.115950,22.08609
2021-04-21 15:55:33.131580,28.63852
2021-04-21 15:55:33.147200,35.89102
2021-04-21 15:55:33.162830,42.44058
2021-04-21 15:55:33.178450,47.06992
2021-04-21 15:55:33.194080,49.24506
2021-04-21 15:55:33.209700,49.30847
2021-04-21 15:55:33.225330,48.18488
2021-04-21 15:55:33.240960,46.87296
2021-04-21 15:55:33.256580,45.97726
2021-04-21 15:55:33.272210,45.55884
2021-04-21 15:55:33.287830,45.30374
2021-04-21 15:55:33.303460,44.87003
2021-04-21 15:55:33.319080,44.07892
2021-04-21 15:55:33.334710,42.94446
2021-04-21 15:55:33.350340,41.53625
2021-04-21 15:55:33.365960,39.8233
2021-04-21 15:55:33.381590,37.65973
2021-04-21 15:55:33.397210,34.9104
2021-04-21 15:55:33.412840,31.55701
2021-04-21 15:55:33.428460,27.74969
2021-04-21 15:55:33.444090,23.71021
2021-04-21 15:55:33.459720,19.59058
2021-04-21 15:55:33.475340,15.41754
2021-04-21 15:55:33.490970,11.09302
2021-04-21 15:55:33.506590,6.576782
2021-04-21 15:55:33.522220,1.957275
2021-04-21 15:55:33.537840,-2.533081
2021-04-21 15:55:33.553470,-6.596863
2021-04-21 15:55:33.569100,-10.08545
2021-04-21 15:55:33.584720,-13.04913
2021-04-21 15:55:33.600350,-15.74847
2021-04-21 15:55:33.615970,-18.55334
2021-04-21 15:55:33.631600,-21.73401
2021-04-21 15:55:33.647220,-25.29926
2021-04-21 15:55:33.662850,-28.92792
2021-04-21 15:55:33.678480,-31.98499
2021-04-21 15:55:33.694100,-33.73248
2021-04-21 15:55:33.709730,-33.54126
2021-04-21 15:55:33.725350,-31.11804
2021-04-21 15:55:33.740980,-26.61963
2021-04-21 15:55:33.756600,-20.63397
2021-04-21 15:55:33.772230,-14.01019
2021-04-21 15:55:33.787860,-7.651672
2021-04-21 15:55:33.803480,-2.279846
2021-04-21 15:55:33.819110,1.686218
2021-04-21 15:55:33.834730,4.223999
2021-04-21 15:55:33.850360,5.607117
2021-04-21 15:55:33.865980,6.271484
2021-04-21 15:55:33.881610,6.651917
2021-04-21 15:55:33.897240,7.04834
2021-04-21 15:55:33.912860,7.591187
2021-04-21 15:55:33.928490,8.290955
2021-04-21 15:55:33.944110,9.156372
2021-04-21 15:55:33.959740,10.23877
2021-04-21 15:55:33.975360,11.64679
2021-04-21 15:55:33.990990,13.41766
2021-04-21 15:55:34.006620,15.4762
2021-04-21 15:55:34.022240,17.62756
2021-04-21 15:55:34.037870,19.59076
2021-04-21 15:55:34.053490,21.16669
2021-04-21 15:55:34.069120,22.24353
2021-04-21 15:55:34.084740,22.8316
2021-04-21 15:55:34.100370,23.02008
2021-04-21 15:55:34.116000,22.93286
2021-04-21 15:55:34.131620,22.6806
2021-04-21 15:55:34.147250,22.35162
2021-04-21 15:55:34.162870,21.97247
2021-04-21 15:55:34.178500,21.42285
2021-04-21 15:55:34.194120,20.44574
2021-04-21 15:55:34.209750,18.70837
2021-04-21 15:55:34.225380,15.99121
2021-04-21 15:55:34.241000,12.31299
2021-04-21 15:55:34.256630,8.003052
2021-04-21 15:55:34.272250,3.590576
2021-04-21 15:55:34.287880,-0.4047852
2021-04-21 15:55:34.303500,-3.704712
2021-04-21 15:55:34.319130,-6.369812
2021-04-21 15:55:34.334760,-8.761658
2021-04-21 15:55:34.350380,-11.42664
2021-04-21 15:55:34.366010,-14.87817
2021-04-21 15:55:34.381630,-19.4389
2021-04-21 15:55:34.397260,-25.10394
2021-04-21 15:55:34.412880,-31.4328
2021-04-21 15:55:34.428510,-37.55066
2021-04-21 15:55:34.444140,-42.26434
2021-04-21 15:55:34.459760,-44.39386
2021-04-21 15:55:34.475390,-43.17468
2021-04-21 15:55:34.491010,-38.6214
2021-04-21 15:55:34.506640,-31.578
2021-04-21 15:55:34.522260,-23.47198
2021-04-21 15:55:34.537890,-15.81824
2021-04-21 15:55:34.553520,-9.709778
2021-04-21 15:55:34.569140,-5.549988
2021-04-21 15:55:34.584770,-3.053955
2021-04-21 15:55:34.600390,-1.56781
2021-04-21 15:55:34.616020,-0.3988037
2021-04-21 15:55:34.631640,0.9156494
2021-04-21 15:55:34.647270,2.529419
2021-04-21 15:55:34.662900,4.361023
2021-04-21 15:55:34.678520,6.210754
2021-04-21 15:55:34.694150,7.894958
2021-04-21 15:55:34.709770,9.281677
2021-04-21 15:55:34.725400,10.33197
2021-04-21 15:55:34.741020,11.08221
2021-04-21 15:55:34.756650,11.6225
2021-04-21 15:55:34.772280,12.04883
2021-04-21 15:55:34.787900,12.40729
2021-04-21 15:55:34.803530,12.70508
2021-04-21 15:55:34.819150,12.90271
2021-04-21 15:55:34.834780,12.95184
2021-04-21 15:55:34.850400,12.82178
2021-04-21 15:55:34.866030,12.48096
2021-04-21 15:55:34.881660,11.90485
2021-04-21 15:55:34.897280,11.07892
2021-04-21 15:55:34.912910,9.993286
2021-04-21 15:55:34.928530,8.649353
2021-04-21 15:55:34.944160,7.06958
2021-04-21 15:55:34.959780,5.30011
2021-04-21 15:55:34.975410,3.39679
2021-04-21 15:55:34.991040,1.44928
2021-04-21 15:55:35.006660,-0.4088745
2021-04-21 15:55:35.022290,-2.037537
2021-04-21 15:55:35.037910,-3.295654
2021-04-21 15:55:35.053540,-4.132324
2021-04-21 15:55:35.069160,-4.679138
2021-04-21 15:55:35.084790,-5.202515
2021-04-21 15:55:35.100420,-6.089844
2021-04-21 15:55:35.116040,-7.68927
2021-04-21 15:55:35.131670,-10.24231
2021-04-21 15:55:35.162920,-17.93463
2021-04-21 15:55:35.178550,-22.26593
2021-04-21 15:55:35.194170,-25.96466
2021-04-21 15:55:35.209800,-28.15308
2021-04-21 15:55:35.225420,-28.02625
2021-04-21 15:55:35.241050,-25.11987
2021-04-21 15:55:35.256670,-19.44275
2021-04-21 15:55:35.272300,-11.60632
2021-04-21 15:55:35.287930,-2.675293
2021-04-21 15:55:35.303550,6.078735
2021-04-21 15:55:35.319180,13.55676
2021-04-21 15:55:35.334800,19.13422
2021-04-21 15:55:35.350430,22.7677
2021-04-21 15:55:35.366050,24.8949
2021-04-21 15:55:35.381680,26.1557
2021-04-21 15:55:35.397310,27.13843
2021-04-21 15:55:35.412930,28.18707
2021-04-21 15:55:35.428560,29.42639
2021-04-21 15:55:35.444180,30.84045
2021-04-21 15:55:35.459810,32.39136
2021-04-21 15:55:35.475430,34.04773
2021-04-21 15:55:35.491060,35.74585
2021-04-21 15:55:35.506690,37.33105
2021-04-21 15:55:35.522310,38.52881
2021-04-21 15:55:35.537940,39.04822
2021-04-21 15:55:35.553560,38.74744
2021-04-21 15:55:35.569190,37.70496
2021-04-21 15:55:35.584810,36.21313
2021-04-21 15:55:35.600440,34.64905
2021-04-21 15:55:35.616070,33.28491
2021-04-21 15:55:35.631690,32.1875
2021-04-21 15:55:35.647320,31.22449
2021-04-21 15:55:35.662940,30.18701
2021-04-21 15:55:35.678570,28.88074
2021-04-21 15:55:35.694190,27.19751
2021-04-21 15:55:35.709820,25.14648
2021-04-21 15:55:35.725450,22.82251
2021-04-21 15:55:35.741070,20.39282
2021-04-21 15:55:35.756700,18.03442
2021-04-21 15:55:35.772320,15.88147
2021-04-21 15:55:35.787950,13.93799
2021-04-21 15:55:35.803570,12.02991
2021-04-21 15:55:35.819200,9.818604
2021-04-21 15:55:35.834830,6.887695
2021-04-21 15:55:35.850450,2.939453
2021-04-21 15:55:35.866080,-2.060059
2021-04-21 15:55:35.881700,-7.737305
2021-04-21 15:55:35.897330,-13.34729
2021-04-21 15:55:35.912950,-17.91553
2021-04-21 15:55:35.928580,-20.49255
2021-04-21 15:55:35.944210,-20.44141
2021-04-21 15:55:35.959830,-17.63025
2021-04-21 15:55:35.975460,-12.48352
2021-04-21 15:55:35.991080,-5.854004
2021-04-21 15:55:36.006710,1.23291
2021-04-21 15:55:36.022330,7.841675
2021-04-21 15:55:36.037960,13.32532
2021-04-21 15:55:36.053590,17.43652
2021-04-21 15:55:36.069210,20.21729
2021-04-21 15:55:36.084840,21.90308
2021-04-21 15:55:36.100460,22.75122
2021-04-21 15:55:36.116090,22.9917
2021-04-21 15:55:36.131710,22.79736
2021-04-21 15:55:36.147340,22.34985
2021-04-21 15:55:36.162970,21.86841
2021-04-21 15:55:36.178590,21.61975
2021-04-21 15:55:36.194220,21.88379
2021-04-21 15:55:36.209840,22.83826
2021-04-21 15:55:36.225470,24.48804
2021-04-21 15:55:36.241090,26.56848
2021-04-21 15:55:36.256720,28.59644
2021-04-21 15:55:36.272350,30.03418
2021-04-21 15:55:36.287970,30.53125
2021-04-21 15:55:36.303600,30.07617
2021-04-21 15:55:36.319220,29.04443
2021-04-21 15:55:36.334850,28.03418
2021-04-21 15:55:36.350470,27.55505
2021-04-21 15:55:36.366100,27.81311
2021-04-21 15:55:36.381730,28.63123
2021-04-21 15:55:36.397350,29.56274
2021-04-21 15:55:36.412980,30.16321
2021-04-21 15:55:36.428600,30.23193
2021-04-21 15:55:36.444230,29.89661
2021-04-21 15:55:36.459850,29.52014
2021-04-21 15:55:36.475480,29.47864
2021-04-21 15:55:36.491110,30.03625
2021-04-21 15:55:36.506730,31.2981
2021-04-21 15:55:36.522360,33.35852
2021-04-21 15:55:36.537980,36.38367
2021-04-21 15:55:36.553610,40.70776
2021-04-21 15:55:36.569230,46.69788
2021-04-21 15:55:36.584860,54.57947
2021-04-21 15:55:36.600490,64.29272
2021-04-21 15:55:36.616110,75.47131
2021-04-21 15:55:36.631740,87.51306
2021-04-21 15:55:36.647360,99.81946
2021-04-21 15:55:36.662990,111.8
2021-04-21 15:55:36.678610,122.763
2021-04-21 15:55:36.694240,131.6232
2021-04-21 15:55:36.709870,136.7998
2021-04-21 15:55:36.725490,136.4295
2021-04-21 15:55:36.741120,129.0251
2021-04-21 15:55:36.756740,114.3014
2021-04-21 15:55:36.772370,93.69971
2021-04-21 15:55:36.787990,70.21576
2021-04-21 15:55:36.803620,47.47107
2021-04-21 15:55:36.819250,28.3808
2021-04-21 15:55:36.834870,14.08099
2021-04-21 15:55:36.850500,3.697021
2021-04-21 15:55:36.866120,-5.046692
2021-04-21 15:55:36.881750,-14.58441
2021-04-21 15:55:36.897370,-26.45679
2021-04-21 15:55:36.913000,-40.92249
2021-04-21 15:55:36.928630,-57.21887
2021-04-21 15:55:36.944250,-74.21539
2021-04-21 15:55:36.959880,-90.91022
2021-04-21 15:55:36.975500,-106.574
2021-04-21 15:55:36.991130,-120.632
2021-04-21 15:55:37.006750,-132.5443
2021-04-21 15:55:37.022380,-141.818
2021-04-21 15:55:37.038010,-148.1959
2021-04-21 15:55:37.053630,-151.8195
2021-04-21 15:55:37.069260,-153.225
2021-04-21 15:55:37.084880,-153.1818
2021-04-21 15:55:37.100510,-152.2977
2021-04-21 15:55:37.116130,-150.7247
2021-04-21 15:55:37.131760,-147.9684
2021-04-21 15:55:37.147390,-142.9684
2021-04-21 15:55:37.163010,-134.4252
2021-04-21 15:55:37.178640,-121.3068
2021-04-21 15:55:37.194260,-103.3793
2021-04-21 15:55:37.209890,-81.56323
2021-04-21 15:55:37.225510,-57.90497
2021-04-21 15:55:37.241140,-34.97186
2021-04-21 15:55:37.256770,-15.02319
2021-04-21 15:55:37.272390,0.9037476
2021-04-21 15:55:37.303640,24.47467
2021-04-21 15:55:37.319270,36.67438
2021-04-21 15:55:37.334890,52.20917
2021-04-21 15:55:37.350520,72.1366
2021-04-21 15:55:37.366150,96.04999
2021-04-21 15:55:37.381770,122.2657
2021-04-21 15:55:37.397400,148.2499
2021-04-21 15:55:37.413020,171.1602
2021-04-21 15:55:37.428650,188.3411
2021-04-21 15:55:37.444270,197.7155
2021-04-21 15:55:37.459900,198.037
2021-04-21 15:55:37.475530,189.107
2021-04-21 15:55:37.491150,171.843
2021-04-21 15:55:37.506780,148.1432
2021-04-21 15:55:37.522400,120.6109
2021-04-21 15:55:37.538030,92.03912
2021-04-21 15:55:37.553650,64.97504
2021-04-21 15:55:37.569280,41.36359
2021-04-21 15:55:37.584910,22.43378
2021-04-21 15:55:37.600530,8.75647
2021-04-21 15:55:37.616160,0.3391724
2021-04-21 15:55:37.631780,-3.340942
2021-04-21 15:55:37.647410,-3.350403
2021-04-21 15:55:37.663030,-1.255188
2021-04-21 15:55:37.678660,1.048645
2021-04-21 15:55:37.694290,1.779541
2021-04-21 15:55:37.709910,-0.3237305
2021-04-21 15:55:37.725540,-5.632813
2021-04-21 15:55:37.741160,-13.60492
2021-04-21 15:55:37.756790,-23.04572
2021-04-21 15:55:37.772420,-32.56268
2021-04-21 15:55:37.788040,-40.98816
2021-04-21 15:55:37.803670,-47.60077
2021-04-21 15:55:37.819290,-52.12103
2021-04-21 15:55:37.834920,-54.52484
2021-04-21 15:55:37.850540,-54.98962
2021-04-21 15:55:37.866170,-53.77301
2021-04-21 15:55:37.881800,-51.23328
