Datetime,value
BVP
2021-04-23 10:08:02.030540,389.653
2021-04-23 10:08:02.046160,338.6612
2021-04-23 10:08:02.061790,280.8913
2021-04-23 10:08:02.077420,223.4148
2021-04-23 10:08:02.093040,169.6529
2021-04-23 10:08:02.108670,119.3792
2021-04-23 10:08:02.124290,70.23932
2021-04-23 10:08:02.139920,20.01563
2021-04-23 10:08:02.155540,-31.78564
2021-04-23 10:08:02.171170,-83.04224
2021-04-23 10:08:02.186800,-129.3866
2021-04-23 10:08:02.202420,-165.6705
2021-04-23 10:08:02.218050,-188.2557
2021-04-23 10:08:02.233670,-197.2709
2021-04-23 10:08:02.249300,-197.3871
2021-04-23 10:08:02.264920,-196.2639
2021-04-23 10:08:02.280550,-201.0923
2021-04-23 10:08:02.296180,-215.0334
2021-04-23 10:08:02.311800,-235.7127
2021-04-23 10:08:02.327430,-256.6756
2021-04-23 10:08:02.343050,-270.996
2021-04-23 10:08:02.358680,-274.6556
2021-04-23 10:08:02.374310,-267.6638
2021-04-23 10:08:02.389930,-252.5538
2021-04-23 10:08:02.405560,-231.5125
2021-04-23 10:08:02.421180,-204.5075
2021-04-23 10:08:02.436810,-169.5942
2021-04-23 10:08:02.452430,-124.9413
2021-04-23 10:08:02.468060,-70.75275
2021-04-23 10:08:02.483690,-9.850861
2021-04-23 10:08:02.499310,53.52603
2021-04-23 10:08:02.514940,115.0526
2021-04-23 10:08:02.530560,170.9341
2021-04-23 10:08:02.546190,217.8937
2021-04-23 10:08:02.561810,252.9354
2021-04-23 10:08:02.577440,274.1093
2021-04-23 10:08:02.593070,281.8697
2021-04-23 10:08:02.608690,279.943
2021-04-23 10:08:02.624320,274.3019
2021-04-23 10:08:02.639940,270.843
2021-04-23 10:08:02.655570,272.4093
2021-04-23 10:08:02.671190,277.0605
2021-04-23 10:08:02.686820,279.0454
2021-04-23 10:08:02.702450,271.4632
2021-04-23 10:08:02.718070,249.4253
2021-04-23 10:08:02.733700,212.0435
2021-04-23 10:08:02.749320,161.9652
2021-04-23 10:08:02.764950,103.9121
2021-04-23 10:08:02.780570,43.24127
2021-04-23 10:08:02.796200,-15.11237
2021-04-23 10:08:02.811830,-66.78302
2021-04-23 10:08:02.827450,-107.9536
2021-04-23 10:08:02.843080,-136.2585
2021-04-23 10:08:02.858700,-151.7818
2021-04-23 10:08:02.874330,-157.4985
2021-04-23 10:08:02.889950,-158.8557
2021-04-23 10:08:02.905580,-161.9306
2021-04-23 10:08:02.921210,-171.2877
2021-04-23 10:08:02.936830,-188.6179
2021-04-23 10:08:02.952460,-212.6751
2021-04-23 10:08:02.968080,-239.9092
2021-04-23 10:08:02.983710,-265.793
2021-04-23 10:08:02.999330,-285.5648
2021-04-23 10:08:03.014960,-295.0588
2021-04-23 10:08:03.030590,-291.7246
2021-04-23 10:08:03.046210,-275.5653
2021-04-23 10:08:03.061840,-249.5534
2021-04-23 10:08:03.077460,-219.045
2021-04-23 10:08:03.093090,-189.8994
2021-04-23 10:08:03.108710,-166.4661
2021-04-23 10:08:03.124340,-150.738
2021-04-23 10:08:03.139970,-142.4711
2021-04-23 10:08:03.155590,-140.0831
2021-04-23 10:08:03.171220,-141.4313
2021-04-23 10:08:03.186840,-143.8267
2021-04-23 10:08:03.202470,-144.3845
2021-04-23 10:08:03.218090,-140.8684
2021-04-23 10:08:03.249350,-123.3595
2021-04-23 10:08:03.264970,-117.5461
2021-04-23 10:08:03.280600,-120.6774
2021-04-23 10:08:03.296220,-134.3469
2021-04-23 10:08:03.311850,-154.5136
2021-04-23 10:08:03.327470,-172.3296
2021-04-23 10:08:03.343100,-178.3097
2021-04-23 10:08:03.358730,-167.005
2021-04-23 10:08:03.374350,-139.4965
2021-04-23 10:08:03.389980,-102.4195
2021-04-23 10:08:03.405600,-64.18388
2021-04-23 10:08:03.421230,-30.67454
2021-04-23 10:08:03.436850,-3.373924
2021-04-23 10:08:03.452480,19.76951
2021-04-23 10:08:03.468110,41.91113
2021-04-23 10:08:03.483730,64.83458
2021-04-23 10:08:03.499360,88.4078
2021-04-23 10:08:03.514980,111.7469
2021-04-23 10:08:03.530610,134.7803
2021-04-23 10:08:03.546230,158.8319
2021-04-23 10:08:03.561860,185.789
2021-04-23 10:08:03.577490,216.109
2021-04-23 10:08:03.593110,247.4929
2021-04-23 10:08:03.608740,275.3589
2021-04-23 10:08:03.624360,294.8532
2021-04-23 10:08:03.639990,303.4086
2021-04-23 10:08:03.655610,302.0674
2021-04-23 10:08:03.671240,294.6964
2021-04-23 10:08:03.686870,285.8865
2021-04-23 10:08:03.702490,278.7587
2021-04-23 10:08:03.718120,274.0336
2021-04-23 10:08:03.733740,270.9457
2021-04-23 10:08:03.749370,268.8526
2021-04-23 10:08:03.764990,268.3226
2021-04-23 10:08:03.780620,270.8289
2021-04-23 10:08:03.796250,277.348
2021-04-23 10:08:03.811870,286.9502
2021-04-23 10:08:03.827500,296.6871
2021-04-23 10:08:03.843120,302.9155
2021-04-23 10:08:03.858750,303.2297
2021-04-23 10:08:03.874370,297.8702
2021-04-23 10:08:03.890000,289.6131
2021-04-23 10:08:03.905630,281.9926
2021-04-23 10:08:03.921250,277.3262
2021-04-23 10:08:03.936880,274.9558
2021-04-23 10:08:03.952500,271.1075
2021-04-23 10:08:03.968130,260.4467
2021-04-23 10:08:03.983750,238.527
2021-04-23 10:08:03.999380,203.8555
2021-04-23 10:08:04.015010,158.7885
2021-04-23 10:08:04.030630,108.7057
2021-04-23 10:08:04.046260,59.70631
2021-04-23 10:08:04.061880,16.67195
2021-04-23 10:08:04.077510,-18.13223
2021-04-23 10:08:04.093130,-45.00027
2021-04-23 10:08:04.108760,-65.88461
2021-04-23 10:08:04.124390,-83.37821
2021-04-23 10:08:04.140010,-100.3733
2021-04-23 10:08:04.155640,-120.1588
2021-04-23 10:08:04.171260,-146.2122
2021-04-23 10:08:04.186890,-181.0629
2021-04-23 10:08:04.202510,-224.5429
2021-04-23 10:08:04.218140,-272.351
2021-04-23 10:08:04.233770,-316.2226
2021-04-23 10:08:04.249390,-346.388
2021-04-23 10:08:04.265020,-355.1395
2021-04-23 10:08:04.280640,-339.7745
2021-04-23 10:08:04.296270,-303.2206
2021-04-23 10:08:04.311890,-252.1354
2021-04-23 10:08:04.343150,-134.2162
2021-04-23 10:08:04.358770,-77.14835
2021-04-23 10:08:04.374400,-25.5999
2021-04-23 10:08:04.390020,17.50006
2021-04-23 10:08:04.405650,49.19359
2021-04-23 10:08:04.421270,67.75882
2021-04-23 10:08:04.436900,73.89249
2021-04-23 10:08:04.452530,70.82262
2021-04-23 10:08:04.468150,62.85323
2021-04-23 10:08:04.483780,53.64788
2021-04-23 10:08:04.499400,45.34953
2021-04-23 10:08:04.515030,38.95068
2021-04-23 10:08:04.530650,35.32208
2021-04-23 10:08:04.546280,35.28866
2021-04-23 10:08:04.561910,39.66022
2021-04-23 10:08:04.577530,48.51852
2021-04-23 10:08:04.593160,60.71297
2021-04-23 10:08:04.608780,73.55612
2021-04-23 10:08:04.624410,83.29778
2021-04-23 10:08:04.640030,86.36431
2021-04-23 10:08:04.655660,80.79282
2021-04-23 10:08:04.671290,67.20628
2021-04-23 10:08:04.686910,48.3425
2021-04-23 10:08:04.702540,28.41547
2021-04-23 10:08:04.718160,11.66451
2021-04-23 10:08:04.733790,1.017578
2021-04-23 10:08:04.749410,-3.604782
2021-04-23 10:08:04.765040,-5.589996
2021-04-23 10:08:04.780670,-9.934494
2021-04-23 10:08:04.796290,-20.93196
2021-04-23 10:08:04.811920,-40.45682
2021-04-23 10:08:04.827540,-69.23486
2021-04-23 10:08:04.843170,-107.3707
2021-04-23 10:08:04.858790,-154.1208
2021-04-23 10:08:04.874420,-206.5165
2021-04-23 10:08:04.890050,-258.4538
2021-04-23 10:08:04.905670,-300.9571
2021-04-23 10:08:04.921300,-323.7953
2021-04-23 10:08:04.936920,-318.6996
2021-04-23 10:08:04.952550,-283.125
2021-04-23 10:08:04.968180,-224.1695
2021-04-23 10:08:04.983800,-157.4175
2021-04-23 10:08:04.999430,-101.6115
2021-04-23 10:08:05.015050,-71.78042
2021-04-23 10:08:05.030680,-74.88878
2021-04-23 10:08:05.046300,-108.979
2021-04-23 10:08:05.061930,-165.0887
2021-04-23 10:08:05.077560,-230.9411
2021-04-23 10:08:05.093180,-285.6451
2021-04-23 10:08:05.108810,-310.475
2021-04-23 10:08:05.124430,-297.4218
2021-04-23 10:08:05.140060,-253.7811
2021-04-23 10:08:05.155680,-195.6035
2021-04-23 10:08:05.171310,-136.9689
2021-04-23 10:08:05.186940,-85.41181
2021-04-23 10:08:05.202560,-43.91972
2021-04-23 10:08:05.218190,-14.49916
2021-04-23 10:08:05.233810,0.7662048
2021-04-23 10:08:05.249440,1.216787
2021-04-23 10:08:05.265060,-12.43737
2021-04-23 10:08:05.280690,-35.26733
2021-04-23 10:08:05.296320,-58.13857
2021-04-23 10:08:05.311940,-70.96851
2021-04-23 10:08:05.327570,-67.4132
2021-04-23 10:08:05.343190,-47.19805
2021-04-23 10:08:05.358820,-14.98016
2021-04-23 10:08:05.374440,20.7583
2021-04-23 10:08:05.390070,51.0687
2021-04-23 10:08:05.405700,69.93977
2021-04-23 10:08:05.421320,76.62439
2021-04-23 10:08:05.436950,74.99782
2021-04-23 10:08:05.452570,70.62239
2021-04-23 10:08:05.468200,67.5419
2021-04-23 10:08:05.483820,67.19768
2021-04-23 10:08:05.499450,69.18021
2021-04-23 10:08:05.515080,72.77499
2021-04-23 10:08:05.546330,82.76443
2021-04-23 10:08:05.561950,88.58072
2021-04-23 10:08:05.577580,94.73047
2021-04-23 10:08:05.593200,100.7655
2021-04-23 10:08:05.608830,105.5091
2021-04-23 10:08:05.624460,107.9477
2021-04-23 10:08:05.640080,108.012
2021-04-23 10:08:05.655710,107.2447
2021-04-23 10:08:05.671330,108.5241
2021-04-23 10:08:05.686960,115.0046
2021-04-23 10:08:05.702580,129.1373
2021-04-23 10:08:05.718210,151.1692
2021-04-23 10:08:05.733840,178.271
2021-04-23 10:08:05.749460,204.6964
2021-04-23 10:08:05.765090,223.422
2021-04-23 10:08:05.780710,228.5006
2021-04-23 10:08:05.796340,216.9922
2021-04-23 10:08:05.811960,189.6469
2021-04-23 10:08:05.827590,150.1758
2021-04-23 10:08:05.843220,104.0945
2021-04-23 10:08:05.858840,57.23254
2021-04-23 10:08:05.874470,14.62982
2021-04-23 10:08:05.890090,-20.18573
2021-04-23 10:08:05.905720,-45.51868
2021-04-23 10:08:05.921340,-61.82495
2021-04-23 10:08:05.936970,-71.32245
2021-04-23 10:08:05.952600,-77.2262
2021-04-23 10:08:05.968220,-82.38049
2021-04-23 10:08:05.983850,-87.76416
2021-04-23 10:08:05.999470,-91.79169
2021-04-23 10:08:06.015100,-91.19043
2021-04-23 10:08:06.030720,-82.90118
2021-04-23 10:08:06.046350,-66.11853
2021-04-23 10:08:06.061980,-43.07617
2021-04-23 10:08:06.077600,-17.81622
2021-04-23 10:08:06.093230,6.078857
2021-04-23 10:08:06.108850,27.37909
2021-04-23 10:08:06.124480,47.7099
2021-04-23 10:08:06.140100,70.20087
2021-04-23 10:08:06.155730,97.09583
2021-04-23 10:08:06.171360,128.1118
2021-04-23 10:08:06.186980,160.0728
2021-04-23 10:08:06.202610,188.2468
2021-04-23 10:08:06.218230,208.4191
2021-04-23 10:08:06.233860,218.4178
2021-04-23 10:08:06.249480,218.4808
2021-04-23 10:08:06.265110,210.6039
2021-04-23 10:08:06.280740,197.467
2021-04-23 10:08:06.296360,181.5917
2021-04-23 10:08:06.311990,165.1368
2021-04-23 10:08:06.327610,149.9563
2021-04-23 10:08:06.343240,137.6263
2021-04-23 10:08:06.358860,129.1592
2021-04-23 10:08:06.374490,124.6939
2021-04-23 10:08:06.390120,123.346
2021-04-23 10:08:06.405740,123.3492
2021-04-23 10:08:06.421370,122.4013
2021-04-23 10:08:06.436990,118.399
2021-04-23 10:08:06.452620,110.0112
2021-04-23 10:08:06.468240,97.00867
2021-04-23 10:08:06.483870,80.17908
2021-04-23 10:08:06.499500,60.92761
2021-04-23 10:08:06.515120,40.63373
2021-04-23 10:08:06.530750,20.04645
2021-04-23 10:08:06.546370,-1.002747
2021-04-23 10:08:06.562000,-23.52728
2021-04-23 10:08:06.577620,-48.78473
2021-04-23 10:08:06.593250,-77.51947
2021-04-23 10:08:06.608880,-109.0703
2021-04-23 10:08:06.624500,-141.0256
2021-04-23 10:08:06.640130,-169.3319
2021-04-23 10:08:06.655750,-189.3466
2021-04-23 10:08:06.671380,-197.0921
2021-04-23 10:08:06.687000,-190.6296
2021-04-23 10:08:06.702630,-170.7362
2021-04-23 10:08:06.718260,-140.7988
2021-04-23 10:08:06.733880,-105.8808
2021-04-23 10:08:06.749510,-71.35953
2021-04-23 10:08:06.765130,-41.89224
2021-04-23 10:08:06.780760,-20.65976
2021-04-23 10:08:06.796380,-9.236298
2021-04-23 10:08:06.812010,-7.640137
2021-04-23 10:08:06.827640,-14.44846
2021-04-23 10:08:06.843260,-26.90604
2021-04-23 10:08:06.858890,-41.55429
2021-04-23 10:08:06.874510,-55.20502
2021-04-23 10:08:06.890140,-65.89139
2021-04-23 10:08:06.905760,-73.63763
2021-04-23 10:08:06.921390,-80.05646
2021-04-23 10:08:06.937020,-87.16254
2021-04-23 10:08:06.952640,-95.76453
2021-04-23 10:08:06.968270,-104.5333
2021-04-23 10:08:06.983890,-110.0361
2021-04-23 10:08:06.999520,-107.9621
2021-04-23 10:08:07.015140,-94.76428
2021-04-23 10:08:07.030770,-69.0379
2021-04-23 10:08:07.046400,-32.29828
2021-04-23 10:08:07.062020,11.13226
2021-04-23 10:08:07.077650,54.89713
2021-04-23 10:08:07.093270,91.85074
2021-04-23 10:08:07.108900,115.9994
2021-04-23 10:08:07.124520,124.7188
2021-04-23 10:08:07.140150,120.4165
2021-04-23 10:08:07.155780,110.5963
2021-04-23 10:08:07.171400,105.722
2021-04-23 10:08:07.187030,115.1923
2021-04-23 10:08:07.202650,143.048
2021-04-23 10:08:07.218280,185.6963
2021-04-23 10:08:07.233910,232.6286
2021-04-23 10:08:07.249530,270.2799
2021-04-23 10:08:07.265160,287.2983
2021-04-23 10:08:07.280780,278.6866
2021-04-23 10:08:07.296410,247.3888
2021-04-23 10:08:07.312030,202.6268
2021-04-23 10:08:07.327660,155.824
2021-04-23 10:08:07.343290,116.2001
2021-04-23 10:08:07.358910,87.96036
2021-04-23 10:08:07.374540,69.8793
2021-04-23 10:08:07.390160,57.43912
2021-04-23 10:08:07.405790,46.02927
2021-04-23 10:08:07.421410,33.44666
2021-04-23 10:08:07.437040,20.54416
2021-04-23 10:08:07.452670,9.666382
2021-04-23 10:08:07.468290,2.163879
2021-04-23 10:08:07.483920,-3.556503
2021-04-23 10:08:07.499540,-11.74054
2021-04-23 10:08:07.515170,-27.16039
2021-04-23 10:08:07.530790,-52.51018
2021-04-23 10:08:07.546420,-87.09639
2021-04-23 10:08:07.562050,-127.6023
2021-04-23 10:08:07.577670,-170.0741
2021-04-23 10:08:07.593300,-211.5969
2021-04-23 10:08:07.608920,-250.5454
2021-04-23 10:08:07.624550,-285.5544
2021-04-23 10:08:07.640170,-314.099
2021-04-23 10:08:07.655800,-332.1243
2021-04-23 10:08:07.671430,-335.2957
2021-04-23 10:08:07.687050,-321.061
2021-04-23 10:08:07.702680,-290.5999
2021-04-23 10:08:07.718300,-249.1928
2021-04-23 10:08:07.733930,-204.7457
2021-04-23 10:08:07.749550,-165.2945
2021-04-23 10:08:07.765180,-136.2375
2021-04-23 10:08:07.780810,-118.8162
2021-04-23 10:08:07.796430,-110.2493
2021-04-23 10:08:07.812060,-105.1348
2021-04-23 10:08:07.827680,-97.67519
2021-04-23 10:08:07.843310,-83.85442
2021-04-23 10:08:07.858930,-62.71404
2021-04-23 10:08:07.874560,-36.32771
2021-04-23 10:08:07.890190,-8.68309
2021-04-23 10:08:07.905810,15.9471
2021-04-23 10:08:07.921440,34.46996
2021-04-23 10:08:07.937060,45.50764
2021-04-23 10:08:07.952690,49.19569
2021-04-23 10:08:07.968310,46.91861
2021-04-23 10:08:07.983940,40.68329
2021-04-23 10:08:07.999570,32.7386
2021-04-23 10:08:08.015190,25.28017
2021-04-23 10:08:08.030820,20.01387
2021-04-23 10:08:08.046440,17.68633
2021-04-23 10:08:08.062070,17.9711
2021-04-23 10:08:08.077690,19.56674
2021-04-23 10:08:08.093320,20.72592
2021-04-23 10:08:08.108950,19.97702
2021-04-23 10:08:08.124570,16.39534
2021-04-23 10:08:08.140200,9.623962
2021-04-23 10:08:08.155820,-0.2217102
2021-04-23 10:08:08.171450,-12.82846
2021-04-23 10:08:08.187070,-27.7746
2021-04-23 10:08:08.202700,-44.49466
2021-04-23 10:08:08.218330,-62.15079
2021-04-23 10:08:08.233950,-79.63113
2021-04-23 10:08:08.249580,-95.56827
2021-04-23 10:08:08.265200,-108.5201
2021-04-23 10:08:08.280830,-117.1732
2021-04-23 10:08:08.296450,-120.7654
2021-04-23 10:08:08.312080,-119.5628
2021-04-23 10:08:08.327710,-115.0922
2021-04-23 10:08:08.343330,-109.7969
2021-04-23 10:08:08.358960,-106.0874
2021-04-23 10:08:08.374580,-105.2664
2021-04-23 10:08:08.390210,-106.7076
2021-04-23 10:08:08.405830,-108.0732
2021-04-23 10:08:08.421460,-106.4195
2021-04-23 10:08:08.437090,-99.50607
2021-04-23 10:08:08.452710,-86.8765
2021-04-23 10:08:08.468340,-69.94833
2021-04-23 10:08:08.483960,-51.73935
2021-04-23 10:08:08.499590,-36.10352
2021-04-23 10:08:08.515210,-26.78189
2021-04-23 10:08:08.530840,-26.3092
2021-04-23 10:08:08.546470,-34.76395
2021-04-23 10:08:08.562090,-48.96313
2021-04-23 10:08:08.577720,-62.56796
2021-04-23 10:08:08.593340,-68.16061
2021-04-23 10:08:08.608970,-60.76889
2021-04-23 10:08:08.624590,-41.07416
2021-04-23 10:08:08.640220,-16.13647
2021-04-23 10:08:08.655850,3.462219
2021-04-23 10:08:08.671470,9.098206
2021-04-23 10:08:08.687100,-0.9830933
2021-04-23 10:08:08.702720,-20.31842
2021-04-23 10:08:08.718350,-37.23224
2021-04-23 10:08:08.733970,-40.76288
2021-04-23 10:08:08.749600,-26.32172
2021-04-23 10:08:08.765230,2.140747
2021-04-23 10:08:08.780850,34.39594
2021-04-23 10:08:08.796480,59.22858
2021-04-23 10:08:08.812100,69.74011
2021-04-23 10:08:08.827730,66.17078
2021-04-23 10:08:08.843350,55.00891
2021-04-23 10:08:08.858980,45.36346
2021-04-23 10:08:08.874610,44.63037
2021-04-23 10:08:08.890230,55.78851
2021-04-23 10:08:08.905860,77.3161
2021-04-23 10:08:08.921480,105.069
2021-04-23 10:08:08.937110,134.7137
2021-04-23 10:08:08.952730,163.1288
2021-04-23 10:08:08.968360,188.598
2021-04-23 10:08:08.983990,209.4175
2021-04-23 10:08:08.999610,222.7471
2021-04-23 10:08:09.015240,224.77
2021-04-23 10:08:09.030860,212.3055
2021-04-23 10:08:09.046490,185.0078
2021-04-23 10:08:09.062110,146.6671
2021-04-23 10:08:09.077740,104.6441
2021-04-23 10:08:09.093370,67.19385
2021-04-23 10:08:09.108990,40.47076
2021-04-23 10:08:09.124620,26.39655
2021-04-23 10:08:09.140240,22.47064
2021-04-23 10:08:09.155870,23.22296
2021-04-23 10:08:09.171490,22.47742
2021-04-23 10:08:09.187120,15.49701
2021-04-23 10:08:09.202750,0.5916138
2021-04-23 10:08:09.218370,-20.01001
2021-04-23 10:08:09.234000,-40.2572
2021-04-23 10:08:09.249620,-51.74164
2021-04-23 10:08:09.265250,-46.44049
2021-04-23 10:08:09.280870,-19.87384
2021-04-23 10:08:09.296500,26.59772
2021-04-23 10:08:09.312130,85.55914
2021-04-23 10:08:09.327750,145.7875
2021-04-23 10:08:09.343380,196.1708
2021-04-23 10:08:09.359000,229.4576
2021-04-23 10:08:09.374630,244.2175
2021-04-23 10:08:09.390250,244.1714
2021-04-23 10:08:09.405880,235.6212
2021-04-23 10:08:09.421510,224.3771
2021-04-23 10:08:09.437130,213.7411
2021-04-23 10:08:09.452760,204.0878
2021-04-23 10:08:09.468380,193.9539
2021-04-23 10:08:09.484010,181.4723
2021-04-23 10:08:09.499630,165.2311
2021-04-23 10:08:09.515260,144.5997
2021-04-23 10:08:09.530890,119.618
2021-04-23 10:08:09.546510,90.72675
2021-04-23 10:08:09.562140,58.83453
2021-04-23 10:08:09.577760,25.60669
2021-04-23 10:08:09.593390,-6.623108
2021-04-23 10:08:09.609010,-35.1142
2021-04-23 10:08:09.624640,-57.53925
2021-04-23 10:08:09.640270,-72.93915
2021-04-23 10:08:09.655890,-81.9502
2021-04-23 10:08:09.671520,-86.47766
2021-04-23 10:08:09.687140,-88.63312
2021-04-23 10:08:09.702770,-89.69836
2021-04-23 10:08:09.718390,-89.68994
2021-04-23 10:08:09.734020,-87.74335
2021-04-23 10:08:09.749650,-82.85138
2021-04-23 10:08:09.765270,-74.64697
2021-04-23 10:08:09.780900,-63.71613
2021-04-23 10:08:09.796520,-51.25
2021-04-23 10:08:09.812150,-38.63904
2021-04-23 10:08:09.827780,-27.15674
2021-04-23 10:08:09.843400,-17.73376
2021-04-23 10:08:09.859030,-11.06879
2021-04-23 10:08:09.874650,-7.493713
2021-04-23 10:08:09.890280,-6.898499
2021-04-23 10:08:09.905900,-8.706726
2021-04-23 10:08:09.921530,-12.06866
2021-04-23 10:08:09.937160,-16.05109
2021-04-23 10:08:09.952780,-20.04596
2021-04-23 10:08:09.968410,-23.92566
2021-04-23 10:08:09.984030,-27.88458
2021-04-23 10:08:09.999660,-32.27435
2021-04-23 10:08:10.015280,-37.23474
2021-04-23 10:08:10.030910,-42.60577
2021-04-23 10:08:10.046540,-48.03076
2021-04-23 10:08:10.062160,-53.23077
2021-04-23 10:08:10.077790,-57.9895
2021-04-23 10:08:10.093410,-62.16565
2021-04-23 10:08:10.109040,-65.44702
2021-04-23 10:08:10.124660,-67.14252
2021-04-23 10:08:10.140290,-66.41736
2021-04-23 10:08:10.155920,-62.5824
2021-04-23 10:08:10.171540,-55.58014
2021-04-23 10:08:10.187170,-46.16522
2021-04-23 10:08:10.202790,-35.77844
2021-04-23 10:08:10.218420,-25.90643
2021-04-23 10:08:10.234040,-17.53601
2021-04-23 10:08:10.249670,-10.86938
2021-04-23 10:08:10.265300,-5.345337
2021-04-23 10:08:10.280920,-0.1913452
2021-04-23 10:08:10.296550,5.104553
2021-04-23 10:08:10.312170,10.60822
2021-04-23 10:08:10.327800,15.90222
2021-04-23 10:08:10.343420,20.52228
2021-04-23 10:08:10.359050,24.21503
2021-04-23 10:08:10.374680,27.05389
2021-04-23 10:08:10.390300,29.20416
2021-04-23 10:08:10.405930,30.75226
2021-04-23 10:08:10.421550,31.44971
2021-04-23 10:08:10.437180,30.74988
2021-04-23 10:08:10.452800,28.04822
2021-04-23 10:08:10.468430,23.00238
2021-04-23 10:08:10.484060,15.94788
2021-04-23 10:08:10.499680,8.080444
2021-04-23 10:08:10.515310,1.267395
2021-04-23 10:08:10.530930,-2.492676
2021-04-23 10:08:10.546560,-1.705566
2021-04-23 10:08:10.562180,3.848877
2021-04-23 10:08:10.577810,13.01794
2021-04-23 10:08:10.593440,23.63275
2021-04-23 10:08:10.609060,33.25452
2021-04-23 10:08:10.624690,39.82373
2021-04-23 10:08:10.640310,42.06171
2021-04-23 10:08:10.655940,39.39154
2021-04-23 10:08:10.671560,31.73322
2021-04-23 10:08:10.687190,19.60327
2021-04-23 10:08:10.702820,4.293335
2021-04-23 10:08:10.718440,-12.00525
2021-04-23 10:08:10.734070,-26.66876
2021-04-23 10:08:10.749690,-37.93884
2021-04-23 10:08:10.765320,-46.11493
2021-04-23 10:08:10.780940,-53.80096
2021-04-23 10:08:10.796570,-64.70911
2021-04-23 10:08:10.812200,-81.34851
2021-04-23 10:08:10.827820,-103.0494
2021-04-23 10:08:10.843450,-125.6328
2021-04-23 10:08:10.859070,-143.0926
2021-04-23 10:08:10.874700,-150.4675
2021-04-23 10:08:10.890320,-146.3164
2021-04-23 10:08:10.905950,-133.2864
2021-04-23 10:08:10.921580,-116.6598
2021-04-23 10:08:10.937200,-101.8055
2021-04-23 10:08:10.952830,-91.94128
2021-04-23 10:08:10.968450,-87.2323
2021-04-23 10:08:10.984080,-85.59222
2021-04-23 10:08:10.999700,-84.1474
2021-04-23 10:08:11.015330,-80.64301
2021-04-23 10:08:11.030960,-74.15686
2021-04-23 10:08:11.046580,-65.01404
2021-04-23 10:08:11.062210,-54.34851
2021-04-23 10:08:11.077830,-43.6048
2021-04-23 10:08:11.093460,-34.06287
2021-04-23 10:08:11.109080,-26.29883
2021-04-23 10:08:11.124710,-20.13678
2021-04-23 10:08:11.140340,-14.67719
2021-04-23 10:08:11.155960,-8.812683
2021-04-23 10:08:11.171590,-1.827148
2021-04-23 10:08:11.187210,6.183716
2021-04-23 10:08:11.202840,14.32483
2021-04-23 10:08:11.218460,21.33228
2021-04-23 10:08:11.234090,26.3808
2021-04-23 10:08:11.249720,29.74823
2021-04-23 10:08:11.265340,32.89136
2021-04-23 10:08:11.280970,38.00061
2021-04-23 10:08:11.296590,47.04883
2021-04-23 10:08:11.312220,60.84839
2021-04-23 10:08:11.327840,78.56982
2021-04-23 10:08:11.343470,97.93298
2021-04-23 10:08:11.359100,116.0825
2021-04-23 10:08:11.374720,130.5739
2021-04-23 10:08:11.390350,140.2056
2021-04-23 10:08:11.405970,145.1907
2021-04-23 10:08:11.421600,146.828
2021-04-23 10:08:11.437220,146.699
2021-04-23 10:08:11.452850,145.7661
2021-04-23 10:08:11.468480,143.8662
2021-04-23 10:08:11.484100,139.6364
2021-04-23 10:08:11.499730,131.2365
2021-04-23 10:08:11.515350,117.2775
2021-04-23 10:08:11.530980,97.85583
2021-04-23 10:08:11.546600,74.85248
2021-04-23 10:08:11.562230,51.48004
2021-04-23 10:08:11.577860,31.08154
2021-04-23 10:08:11.593480,15.65973
2021-04-23 10:08:11.609110,4.914917
2021-04-23 10:08:11.624730,-3.817505
2021-04-23 10:08:11.640360,-14.45593
2021-04-23 10:08:11.655980,-30.5896
2021-04-23 10:08:11.671610,-53.80286
2021-04-23 10:08:11.687240,-83.00269
2021-04-23 10:08:11.702860,-114.738
2021-04-23 10:08:11.718490,-144.3506
2021-04-23 10:08:11.734110,-167.4326
2021-04-23 10:08:11.749740,-180.8469
2021-04-23 10:08:11.765360,-183.1719
2021-04-23 10:08:11.780990,-174.6097
2021-04-23 10:08:11.796620,-156.6532
2021-04-23 10:08:11.812240,-131.7665
2021-04-23 10:08:11.827870,-103.1151
2021-04-23 10:08:11.843490,-74.33002
2021-04-23 10:08:11.859120,-48.82855
2021-04-23 10:08:11.874740,-29.08795
2021-04-23 10:08:11.890370,-15.88361
2021-04-23 10:08:11.906000,-7.984863
2021-04-23 10:08:11.921620,-2.481873
2021-04-23 10:08:11.937250,4.43396
2021-04-23 10:08:11.952870,16.28198
2021-04-23 10:08:11.968500,34.98468
2021-04-23 10:08:11.984120,59.80511
2021-04-23 10:08:11.999750,87.11926
2021-04-23 10:08:12.015380,111.0643
2021-04-23 10:08:12.031000,125.3833
2021-04-23 10:08:12.046630,125.642
2021-04-23 10:08:12.062250,111.0587
2021-04-23 10:08:12.077880,85.07489
2021-04-23 10:08:12.093510,54.12769
2021-04-23 10:08:12.109130,25.25977
2021-04-23 10:08:12.124760,3.636353
2021-04-23 10:08:12.140380,-8.765015
2021-04-23 10:08:12.156010,-12.92267
2021-04-23 10:08:12.171630,-11.19824
2021-04-23 10:08:12.187260,-5.752808
2021-04-23 10:08:12.202890,2.191223
2021-04-23 10:08:12.218510,12.10223
2021-04-23 10:08:12.234140,23.38983
2021-04-23 10:08:12.249760,34.91522
2021-04-23 10:08:12.265390,45.1853
2021-04-23 10:08:12.281010,53.13184
2021-04-23 10:08:12.296640,58.49652
2021-04-23 10:08:12.312270,61.76001
2021-04-23 10:08:12.327890,63.58429
2021-04-23 10:08:12.343520,64.09778
2021-04-23 10:08:12.359140,62.97034
2021-04-23 10:08:12.374770,60.11499
2021-04-23 10:08:12.390390,56.62445
2021-04-23 10:08:12.406020,55.13495
2021-04-23 10:08:12.421650,58.90979
2021-04-23 10:08:12.437270,69.91711
2021-04-23 10:08:12.452900,87.14026
2021-04-23 10:08:12.468520,106.1393
2021-04-23 10:08:12.484150,120.3788
2021-04-23 10:08:12.499770,124.0176
2021-04-23 10:08:12.515400,114.4473
2021-04-23 10:08:12.531030,93.50037
2021-04-23 10:08:12.546650,66.60443
2021-04-23 10:08:12.562280,40.40564
2021-04-23 10:08:12.577900,20.17169
2021-04-23 10:08:12.593530,8.072205
2021-04-23 10:08:12.609150,3.170898
2021-04-23 10:08:12.624780,2.693726
2021-04-23 10:08:12.640410,3.847046
2021-04-23 10:08:12.656030,5.173401
2021-04-23 10:08:12.671660,6.955078
2021-04-23 10:08:12.687280,10.57178
2021-04-23 10:08:12.702910,17.43378
2021-04-23 10:08:12.718530,27.90015
2021-04-23 10:08:12.734160,40.68933
2021-04-23 10:08:12.749790,53.13489
2021-04-23 10:08:12.765410,61.92548
2021-04-23 10:08:12.781040,64.47327
2021-04-23 10:08:12.796660,59.96881
2021-04-23 10:08:12.812290,49.86621
2021-04-23 10:08:12.827910,37.52698
2021-04-23 10:08:12.843540,27.10181
2021-04-23 10:08:12.859170,22.17078
2021-04-23 10:08:12.874790,24.59851
2021-04-23 10:08:12.890420,34.06042
2021-04-23 10:08:12.906040,48.13562
2021-04-23 10:08:12.921670,63.08246
2021-04-23 10:08:12.937290,74.94257
2021-04-23 10:08:12.952920,80.6123
2021-04-23 10:08:12.968550,78.815
2021-04-23 10:08:12.984170,70.48309
2021-04-23 10:08:12.999800,58.83984
2021-04-23 10:08:13.015420,48.62982
2021-04-23 10:08:13.031050,44.54919
2021-04-23 10:08:13.046670,49.35132
2021-04-23 10:08:13.062300,62.06116
2021-04-23 10:08:13.077930,77.44476
2021-04-23 10:08:13.093550,87.05103
2021-04-23 10:08:13.109180,81.97028
2021-04-23 10:08:13.124800,56.29187
2021-04-23 10:08:13.140430,9.873901
2021-04-23 10:08:13.156050,-51.01965
2021-04-23 10:08:13.171680,-115.588
2021-04-23 10:08:13.187310,-172.2758
2021-04-23 10:08:13.202930,-212.7983
2021-04-23 10:08:13.218560,-234.6309
2021-04-23 10:08:13.234180,-240.9781
2021-04-23 10:08:13.249810,-238.3074
2021-04-23 10:08:13.265430,-233.0949
2021-04-23 10:08:13.281060,-229.1331
2021-04-23 10:08:13.296690,-226.731
2021-04-23 10:08:13.312310,-223.7293
2021-04-23 10:08:13.327940,-217.4004
2021-04-23 10:08:13.343560,-206.1921
2021-04-23 10:08:13.359190,-190.4715
2021-04-23 10:08:13.374810,-172.1252
2021-04-23 10:08:13.390440,-153.5641
2021-04-23 10:08:13.406070,-136.8335
2021-04-23 10:08:13.421690,-123.242
2021-04-23 10:08:13.437320,-113.3688
2021-04-23 10:08:13.452940,-107.3046
2021-04-23 10:08:13.468570,-104.7189
2021-04-23 10:08:13.484190,-104.9829
2021-04-23 10:08:13.499820,-107.2466
2021-04-23 10:08:13.515450,-110.462
2021-04-23 10:08:13.531070,-113.619
2021-04-23 10:08:13.546700,-115.8179
2021-04-23 10:08:13.562320,-116.2591
2021-04-23 10:08:13.577950,-114.1819
2021-04-23 10:08:13.593570,-108.9844
2021-04-23 10:08:13.609200,-100.4435
2021-04-23 10:08:13.624830,-89.03418
2021-04-23 10:08:13.640450,-75.98712
2021-04-23 10:08:13.656080,-63.17834
2021-04-23 10:08:13.671700,-52.60785
2021-04-23 10:08:13.687330,-45.85187
2021-04-23 10:08:13.702950,-43.59772
2021-04-23 10:08:13.718580,-45.44769
2021-04-23 10:08:13.734210,-49.82452
2021-04-23 10:08:13.749830,-54.13086
2021-04-23 10:08:13.765460,-55.24249
2021-04-23 10:08:13.781080,-50.37311
2021-04-23 10:08:13.796710,-38.39771
2021-04-23 10:08:13.812330,-20.66388
2021-04-23 10:08:13.827960,-1.34375
2021-04-23 10:08:13.843590,13.57922
2021-04-23 10:08:13.859210,18.3147
2021-04-23 10:08:13.874840,9.557678
2021-04-23 10:08:13.890460,-12.1272
2021-04-23 10:08:13.906090,-42.56274
2021-04-23 10:08:13.921710,-75.62939
2021-04-23 10:08:13.937340,-105.529
2021-04-23 10:08:13.952970,-128.2363
2021-04-23 10:08:13.968590,-141.7759
2021-04-23 10:08:13.984220,-145.4672
2021-04-23 10:08:13.999840,-138.9979
2021-04-23 10:08:14.015470,-122.0111
2021-04-23 10:08:14.031090,-94.50824
2021-04-23 10:08:14.046720,-57.65356
2021-04-23 10:08:14.062350,-14.15051
2021-04-23 10:08:14.077970,32.01764
2021-04-23 10:08:14.093600,76.46344
2021-04-23 10:08:14.109220,115.4805
2021-04-23 10:08:14.124850,146.9668
2021-04-23 10:08:14.140470,170.7881
2021-04-23 10:08:14.156100,188.4453
2021-04-23 10:08:14.171730,202.2471
2021-04-23 10:08:14.187350,214.33
2021-04-23 10:08:14.202980,225.757
2021-04-23 10:08:14.218600,236.0479
2021-04-23 10:08:14.234230,243.541
2021-04-23 10:08:14.249860,246.4631
2021-04-23 10:08:14.265480,244.3605
2021-04-23 10:08:14.281110,238.9328
2021-04-23 10:08:14.296730,233.6794
2021-04-23 10:08:14.312360,232.4885
2021-04-23 10:08:14.327980,237.4555
2021-04-23 10:08:14.343610,247.3283
2021-04-23 10:08:14.359240,257.4362
2021-04-23 10:08:14.374860,261.3831
2021-04-23 10:08:14.390490,253.8354
2021-04-23 10:08:14.406110,233.0719
2021-04-23 10:08:14.421740,201.9807
2021-04-23 10:08:14.437360,166.8201
2021-04-23 10:08:14.452990,134.502
2021-04-23 10:08:14.468620,109.6445
2021-04-23 10:08:14.484240,92.86743
2021-04-23 10:08:14.499870,81.2384
2021-04-23 10:08:14.515490,70.36249
2021-04-23 10:08:14.531120,56.97992
2021-04-23 10:08:14.546740,40.4848
2021-04-23 10:08:14.562370,22.72668
2021-04-23 10:08:14.578000,6.340454
2021-04-23 10:08:14.593620,-7.035278
2021-04-23 10:08:14.609250,-17.737
2021-04-23 10:08:14.624870,-27.63776
2021-04-23 10:08:14.640500,-38.70233
2021-04-23 10:08:14.656120,-51.66382
2021-04-23 10:08:14.671750,-65.58069
2021-04-23 10:08:14.687380,-78.2442
2021-04-23 10:08:14.703000,-87.27185
2021-04-23 10:08:14.718630,-91.18524
2021-04-23 10:08:14.734250,-89.78882
2021-04-23 10:08:14.749880,-84.09155
2021-04-23 10:08:14.765500,-75.84167
2021-04-23 10:08:14.781130,-67.17712
2021-04-23 10:08:14.796760,-60.50159
2021-04-23 10:08:14.812380,-58.45221
2021-04-23 10:08:14.828010,-63.43884
2021-04-23 10:08:14.843630,-76.73883
2021-04-23 10:08:14.859260,-97.35724
2021-04-23 10:08:14.874880,-121.3876
2021-04-23 10:08:14.890510,-142.5464
2021-04-23 10:08:14.906140,-153.8861
2021-04-23 10:08:14.921760,-150.032
2021-04-23 10:08:14.937390,-129.0829
2021-04-23 10:08:14.953010,-93.15509
2021-04-23 10:08:14.968640,-47.58691
2021-04-23 10:08:14.984260,0.5952759
2021-04-23 10:08:14.999890,44.27698
2021-04-23 10:08:15.015520,77.31964
2021-04-23 10:08:15.031140,95.25256
2021-04-23 10:08:15.046770,95.87494
2021-04-23 10:08:15.062390,79.95929
2021-04-23 10:08:15.078020,51.45874
2021-04-23 10:08:15.093640,16.99585
2021-04-23 10:08:15.109270,-15.66785
2021-04-23 10:08:15.124900,-39.71759
2021-04-23 10:08:15.140520,-51.11578
2021-04-23 10:08:15.156150,-49.20966
2021-04-23 10:08:15.171770,-36.12787
2021-04-23 10:08:15.187400,-15.31305
2021-04-23 10:08:15.203020,9.948181
2021-04-23 10:08:15.218650,37.21423
2021-04-23 10:08:15.234280,64.98492
2021-04-23 10:08:15.249900,92.34558
2021-04-23 10:08:15.265530,118.5524
2021-04-23 10:08:15.281150,142.8262
2021-04-23 10:08:15.296780,164.252
2021-04-23 10:08:15.312400,181.731
2021-04-23 10:08:15.328030,194.0677
2021-04-23 10:08:15.343660,200.2657
2021-04-23 10:08:15.359280,199.9125
2021-04-23 10:08:15.374910,193.4836
2021-04-23 10:08:15.390530,182.2217
2021-04-23 10:08:15.406160,167.6747
2021-04-23 10:08:15.421780,151.1392
2021-04-23 10:08:15.437410,133.2736
2021-04-23 10:08:15.453040,114.2225
2021-04-23 10:08:15.468660,94.02521
2021-04-23 10:08:15.484290,73.12347
2021-04-23 10:08:15.499910,52.44812
2021-04-23 10:08:15.515540,33.16388
2021-04-23 10:08:15.531160,16.14612
2021-04-23 10:08:15.546790,1.725098
2021-04-23 10:08:15.562420,-10.11682
2021-04-23 10:08:15.578040,-19.22583
2021-04-23 10:08:15.593670,-24.94592
2021-04-23 10:08:15.609290,-26.29657
2021-04-23 10:08:15.624920,-22.51373
2021-04-23 10:08:15.640540,-13.83484
2021-04-23 10:08:15.656170,-1.783142
2021-04-23 10:08:15.671800,11.10706
2021-04-23 10:08:15.687420,22.06116
2021-04-23 10:08:15.703050,28.92523
2021-04-23 10:08:15.718670,30.80194
2021-04-23 10:08:15.734300,28.05426
2021-04-23 10:08:15.749920,21.97754
2021-04-23 10:08:15.765550,14.16788
2021-04-23 10:08:15.781180,6.147308
2021-04-23 10:08:15.796800,-0.7617798
2021-04-23 10:08:15.812430,-5.409637
2021-04-23 10:08:15.828050,-6.796844
2021-04-23 10:08:15.843680,-4.279572
2021-04-23 10:08:15.859300,2.081482
2021-04-23 10:08:15.874930,11.20224
2021-04-23 10:08:15.890560,20.96619
2021-04-23 10:08:15.906180,28.57779
2021-04-23 10:08:15.921810,31.46082
2021-04-23 10:08:15.937430,28.1387
2021-04-23 10:08:15.953060,18.73422
2021-04-23 10:08:15.968680,4.756653
2021-04-23 10:08:15.984310,-11.66348
2021-04-23 10:08:15.999940,-28.69302
2021-04-23 10:08:16.015560,-45.24365
2021-04-23 10:08:16.031190,-60.82007
2021-04-23 10:08:16.046810,-74.95108
2021-04-23 10:08:16.062440,-86.71016
2021-04-23 10:08:16.078060,-94.72089
2021-04-23 10:08:16.093690,-97.84926
2021-04-23 10:08:16.109320,-96.04503
2021-04-23 10:08:16.124940,-90.90469
2021-04-23 10:08:16.140570,-85.42213
2021-04-23 10:08:16.156190,-83.02209
2021-04-23 10:08:16.171820,-86.21341
2021-04-23 10:08:16.187440,-95.59877
2021-04-23 10:08:16.203070,-109.7191
2021-04-23 10:08:16.218700,-125.7576
2021-04-23 10:08:16.234320,-140.844
2021-04-23 10:08:16.249950,-153.1561
2021-04-23 10:08:16.265570,-162.2439
2021-04-23 10:08:16.281200,-168.781
2021-04-23 10:08:16.296820,-173.6469
2021-04-23 10:08:16.312450,-177.132
2021-04-23 10:08:16.328080,-178.7807
2021-04-23 10:08:16.343700,-177.8332
2021-04-23 10:08:16.359330,-173.87
2021-04-23 10:08:16.374950,-167.1429
2021-04-23 10:08:16.390580,-158.3838
2021-04-23 10:08:16.406200,-148.2748
2021-04-23 10:08:16.421830,-137.2658
2021-04-23 10:08:16.437460,-125.6381
2021-04-23 10:08:16.453080,-114.0859
2021-04-23 10:08:16.468710,-104.0442
2021-04-23 10:08:16.484330,-97.43214
2021-04-23 10:08:16.499960,-95.81998
2021-04-23 10:08:16.515580,-99.48462
2021-04-23 10:08:16.531210,-107.026
2021-04-23 10:08:16.546840,-115.8414
2021-04-23 10:08:16.562460,-123.2542
2021-04-23 10:08:16.578090,-127.4415
2021-04-23 10:08:16.593710,-127.9248
2021-04-23 10:08:16.624960,-120.482
2021-04-23 10:08:16.640590,-114.1251
2021-04-23 10:08:16.656220,-106.2883
2021-04-23 10:08:16.671840,-96.64654
2021-04-23 10:08:16.687470,-84.99452
2021-04-23 10:08:16.703090,-71.73374
2021-04-23 10:08:16.718720,-57.99542
2021-04-23 10:08:16.734340,-45.20996
2021-04-23 10:08:16.749970,-34.50533
2021-04-23 10:08:16.765600,-25.82071
2021-04-23 10:08:16.781220,-17.8987
2021-04-23 10:08:16.796850,-9.06218
2021-04-23 10:08:16.812470,1.737839
2021-04-23 10:08:16.828100,14.01118
2021-04-23 10:08:16.843720,26.02019
2021-04-23 10:08:16.859350,35.85295
2021-04-23 10:08:16.874980,42.72868
2021-04-23 10:08:16.890600,47.271
2021-04-23 10:08:16.906230,50.92326
2021-04-23 10:08:16.921850,54.60143
2021-04-23 10:08:16.937480,57.96922
2021-04-23 10:08:16.953110,59.83797
2021-04-23 10:08:16.968730,59.48013
2021-04-23 10:08:16.984360,57.72626
2021-04-23 10:08:16.999980,56.86557
2021-04-23 10:08:17.015610,59.32434
2021-04-23 10:08:17.031230,65.84625
2021-04-23 10:08:17.046860,74.70834
2021-04-23 10:08:17.062490,82.32373
2021-04-23 10:08:17.078110,85.10068
2021-04-23 10:08:17.093740,81.26291
2021-04-23 10:08:17.109360,71.55948
2021-04-23 10:08:17.124990,58.5397
2021-04-23 10:08:17.140610,45.00061
2021-04-23 10:08:17.156240,32.54279
2021-04-23 10:08:17.171870,21.10004
2021-04-23 10:08:17.187490,9.430328
2021-04-23 10:08:17.203120,-4.047577
2021-04-23 10:08:17.218740,-20.48267
2021-04-23 10:08:17.234370,-40.30585
2021-04-23 10:08:17.249990,-63.54382
2021-04-23 10:08:17.265620,-89.80878
2021-04-23 10:08:17.281250,-117.853
2021-04-23 10:08:17.296870,-144.9013
2021-04-23 10:08:17.312500,-166.514
2021-04-23 10:08:17.328120,-177.6981
2021-04-23 10:08:17.343750,-175.075
2021-04-23 10:08:17.359370,-159.3052
2021-04-23 10:08:17.375000,-136.0448
2021-04-23 10:08:17.390630,-114.466
2021-04-23 10:08:17.406250,-103.4678
2021-04-23 10:08:17.421880,-107.4432
2021-04-23 10:08:17.437500,-123.9274
2021-04-23 10:08:17.453130,-144.3989
2021-04-23 10:08:17.468750,-158.1125
2021-04-23 10:08:17.484380,-156.6513
2021-04-23 10:08:17.500010,-136.8914
2021-04-23 10:08:17.515630,-101.2159
2021-04-23 10:08:17.531260,-55.17523
2021-04-23 10:08:17.546880,-4.51239
2021-04-23 10:08:17.562510,46.76099
2021-04-23 10:08:17.578130,96.36853
2021-04-23 10:08:17.593760,142.5185
2021-04-23 10:08:17.609390,182.5825
2021-04-23 10:08:17.625010,212.9659
2021-04-23 10:08:17.640640,230.175
2021-04-23 10:08:17.656260,232.0585
2021-04-23 10:08:17.671890,218.9147
2021-04-23 10:08:17.687510,193.4045
2021-04-23 10:08:17.703140,159.5065
2021-04-23 10:08:17.718770,121.5563
2021-04-23 10:08:17.734390,83.79822
2021-04-23 10:08:17.750020,50.13416
2021-04-23 10:08:17.765640,24.19592
2021-04-23 10:08:17.781270,9.041992
2021-04-23 10:08:17.796890,6.475464
2021-04-23 10:08:17.812520,16.47711
2021-04-23 10:08:17.828150,37.03174
2021-04-23 10:08:17.843770,64.6004
2021-04-23 10:08:17.859400,95.1424
2021-04-23 10:08:17.875020,125.033
2021-04-23 10:08:17.890650,151.4468
2021-04-23 10:08:17.906270,172.5236
2021-04-23 10:08:17.921900,187.0508
2021-04-23 10:08:17.937530,194.3252
2021-04-23 10:08:17.953150,194.3347
2021-04-23 10:08:17.968780,187.7959
2021-04-23 10:08:17.984400,175.9919
2021-04-23 10:08:18.000030,160.4534
2021-04-23 10:08:18.015650,142.4688
2021-04-23 10:08:18.031280,122.8434
2021-04-23 10:08:18.046910,102.0942
2021-04-23 10:08:18.062530,80.72333
2021-04-23 10:08:18.078160,59.58551
2021-04-23 10:08:18.093780,39.69592
2021-04-23 10:08:18.109410,21.79633
2021-04-23 10:08:18.125030,5.778198
2021-04-23 10:08:18.140660,-9.485901
2021-04-23 10:08:18.156290,-25.85004
2021-04-23 10:08:18.171910,-45.0481
2021-04-23 10:08:18.187540,-67.5578
2021-04-23 10:08:18.203160,-92.09863
2021-04-23 10:08:18.218790,-115.8329
2021-04-23 10:08:18.234410,-135.4759
2021-04-23 10:08:18.250040,-148.8499
2021-04-23 10:08:18.265670,-156.113
2021-04-23 10:08:18.281290,-159.7557
2021-04-23 10:08:18.296920,-163.3525
2021-04-23 10:08:18.312540,-169.5881
2021-04-23 10:08:18.328170,-178.4434
2021-04-23 10:08:18.343790,-186.9177
2021-04-23 10:08:18.359420,-190.2372
2021-04-23 10:08:18.375050,-184.2085
2021-04-23 10:08:18.390670,-167.3013
2021-04-23 10:08:18.406300,-141.4228
2021-04-23 10:08:18.421920,-110.9001
2021-04-23 10:08:18.437550,-80.50452
2021-04-23 10:08:18.453170,-53.7113
2021-04-23 10:08:18.468800,-31.9624
2021-04-23 10:08:18.484430,-15.28113
2021-04-23 10:08:18.500050,-3.364746
2021-04-23 10:08:18.515680,3.551819
2021-04-23 10:08:18.531300,4.753601
2021-04-23 10:08:18.546930,-0.01422119
2021-04-23 10:08:18.562550,-9.679871
2021-04-23 10:08:18.578180,-21.50183
2021-04-23 10:08:18.593810,-31.89075
2021-04-23 10:08:18.609430,-37.74817
2021-04-23 10:08:18.625060,-37.73755
2021-04-23 10:08:18.640680,-32.60022
2021-04-23 10:08:18.656310,-24.37781
2021-04-23 10:08:18.671930,-14.94934
2021-04-23 10:08:18.687560,-4.622681
2021-04-23 10:08:18.703190,8.106445
2021-04-23 10:08:18.718810,25.62012
2021-04-23 10:08:18.734440,49.4176
2021-04-23 10:08:18.765690,109.7307
2021-04-23 10:08:18.781310,137.6261
2021-04-23 10:08:18.796940,158.0503
2021-04-23 10:08:18.812570,169.5099
2021-04-23 10:08:18.828190,174.1021
2021-04-23 10:08:18.843820,176.4108
2021-04-23 10:08:18.859440,181.3368
2021-04-23 10:08:18.875070,191.6965
2021-04-23 10:08:18.890690,207.2059
2021-04-23 10:08:18.906320,224.9512
2021-04-23 10:08:18.921950,241.155
2021-04-23 10:08:18.937570,253.1331
2021-04-23 10:08:18.953200,260.2587
2021-04-23 10:08:18.968820,263.6748
2021-04-23 10:08:18.984450,264.9846
2021-04-23 10:08:19.000070,265.0453
2021-04-23 10:08:19.015700,263.4364
2021-04-23 10:08:19.031330,259.0394
2021-04-23 10:08:19.046950,251.1305
2021-04-23 10:08:19.062580,240.2594
2021-04-23 10:08:19.078200,228.1121
2021-04-23 10:08:19.093830,216.5521
2021-04-23 10:08:19.109450,206.2167
2021-04-23 10:08:19.125080,195.723
2021-04-23 10:08:19.140710,182.0109
2021-04-23 10:08:19.156330,161.7975
2021-04-23 10:08:19.171960,133.3927
2021-04-23 10:08:19.187580,97.90686
2021-04-23 10:08:19.203210,59.20752
2021-04-23 10:08:19.218840,22.56287
2021-04-23 10:08:19.234460,-7.147766
2021-04-23 10:08:19.250090,-27.06555
2021-04-23 10:08:19.265710,-37.0744
2021-04-23 10:08:19.281340,-39.50128
2021-04-23 10:08:19.296960,-38.05084
2021-04-23 10:08:19.312590,-36.45453
2021-04-23 10:08:19.328220,-37.21191
2021-04-23 10:08:19.343840,-40.74371
2021-04-23 10:08:19.359470,-45.3327
2021-04-23 10:08:19.375090,-47.87805
2021-04-23 10:08:19.390720,-45.39819
2021-04-23 10:08:19.406340,-36.53497
2021-04-23 10:08:19.421970,-22.5307
2021-04-23 10:08:19.437600,-6.882324
2021-04-23 10:08:19.453220,6.367676
2021-04-23 10:08:19.468850,14.85577
2021-04-23 10:08:19.484470,19.34229
2021-04-23 10:08:19.500100,23.38501
2021-04-23 10:08:19.515720,31.23083
2021-04-23 10:08:19.531350,45.07251
2021-04-23 10:08:19.546980,63.29028
2021-04-23 10:08:19.562600,80.96326
2021-04-23 10:08:19.578230,92.19196
2021-04-23 10:08:19.593850,93.07373
2021-04-23 10:08:19.609480,83.20355
2021-04-23 10:08:19.625100,65.12799
2021-04-23 10:08:19.640730,42.20282
2021-04-23 10:08:19.656360,16.479
2021-04-23 10:08:19.671980,-11.8266
2021-04-23 10:08:19.687610,-43.18134
2021-04-23 10:08:19.703230,-76.84302
2021-04-23 10:08:19.718860,-110.1428
2021-04-23 10:08:19.734480,-139.5206
2021-04-23 10:08:19.750110,-162.8024
2021-04-23 10:08:19.765740,-181.0562
2021-04-23 10:08:19.781360,-198.4648
2021-04-23 10:08:19.796990,-220.167
2021-04-23 10:08:19.812610,-249.2897
2021-04-23 10:08:19.828240,-285.0502
2021-04-23 10:08:19.843860,-322.9127
2021-04-23 10:08:19.859490,-356.6084
2021-04-23 10:08:19.875120,-380.6682
2021-04-23 10:08:19.890740,-392.1252
2021-04-23 10:08:19.906370,-390.6732
2021-04-23 10:08:19.921990,-377.7283
2021-04-23 10:08:19.937620,-355.5067
2021-04-23 10:08:19.953240,-326.5337
2021-04-23 10:08:19.968870,-293.6699
2021-04-23 10:08:19.984500,-260.1559
2021-04-23 10:08:20.000120,-229.0907
2021-04-23 10:08:20.015750,-202.4171
2021-04-23 10:08:20.031370,-180.0201
2021-04-23 10:08:20.047000,-159.806
2021-04-23 10:08:20.062620,-138.8719
2021-04-23 10:08:20.078250,-115.5505
2021-04-23 10:08:20.093880,-90.92465
2021-04-23 10:08:20.109500,-68.99332
2021-04-23 10:08:20.125130,-55.17392
2021-04-23 10:08:20.140750,-53.68216
2021-04-23 10:08:20.156380,-65.09576
2021-04-23 10:08:20.172000,-85.27103
2021-04-23 10:08:20.187630,-106.2829
2021-04-23 10:08:20.203260,-118.822
2021-04-23 10:08:20.218880,-115.2066
2021-04-23 10:08:20.234510,-91.62714
2021-04-23 10:08:20.250130,-49.11877
2021-04-23 10:08:20.265760,6.882782
2021-04-23 10:08:20.281380,68.07224
2021-04-23 10:08:20.297010,125.406
2021-04-23 10:08:20.312640,171.1686
2021-04-23 10:08:20.328260,200.6193
2021-04-23 10:08:20.343890,213.0123
2021-04-23 10:08:20.359510,211.5487
2021-04-23 10:08:20.375140,202.3071
2021-04-23 10:08:20.390760,192.1685
2021-04-23 10:08:20.406390,186.1431
2021-04-23 10:08:20.422020,185.2633
2021-04-23 10:08:20.437640,185.8726
2021-04-23 10:08:20.453270,180.7948
2021-04-23 10:08:20.468890,162.3136
2021-04-23 10:08:20.484520,125.941
2021-04-23 10:08:20.500140,73.13513
2021-04-23 10:08:20.515770,11.73114
2021-04-23 10:08:20.531400,-46.48065
2021-04-23 10:08:20.547020,-90.14844
2021-04-23 10:08:20.562650,-112.5623
2021-04-23 10:08:20.578270,-113.7285
2021-04-23 10:08:20.593900,-99.45642
2021-04-23 10:08:20.609520,-77.88159
2021-04-23 10:08:20.625150,-55.59821
2021-04-23 10:08:20.640780,-35.4447
2021-04-23 10:08:20.656400,-16.7807
2021-04-23 10:08:20.672030,2.359863
2021-04-23 10:08:20.687650,22.75244
2021-04-23 10:08:20.703280,43.02325
2021-04-23 10:08:20.718900,60.4848
2021-04-23 10:08:20.734530,73.1153
2021-04-23 10:08:20.750160,81.25757
2021-04-23 10:08:20.765780,87.77234
2021-04-23 10:08:20.781410,96.38953
2021-04-23 10:08:20.797030,109.4731
2021-04-23 10:08:20.812660,126.4819
2021-04-23 10:08:20.828280,143.9681
2021-04-23 10:08:20.843910,157.3259
2021-04-23 10:08:20.859540,162.9736
2021-04-23 10:08:20.875160,159.9777
2021-04-23 10:08:20.890790,150.3467
2021-04-23 10:08:20.906410,137.7761
2021-04-23 10:08:20.922040,125.8715
2021-04-23 10:08:20.937660,116.7778
2021-04-23 10:08:20.953290,110.7928
2021-04-23 10:08:20.968920,106.8539
2021-04-23 10:08:20.984540,103.4351
2021-04-23 10:08:21.000170,98.94904
2021-04-23 10:08:21.015790,91.78723
2021-04-23 10:08:21.031420,80.35114
2021-04-23 10:08:21.047040,63.37915
2021-04-23 10:08:21.062670,40.90717
2021-04-23 10:08:21.078300,15.16821
2021-04-23 10:08:21.093920,-9.393005
2021-04-23 10:08:21.109550,-27.4801
2021-04-23 10:08:21.125170,-35.10583
2021-04-23 10:08:21.140800,-31.74017
2021-04-23 10:08:21.156420,-21.03046
2021-04-23 10:08:21.172050,-9.424988
2021-04-23 10:08:21.187680,-3.560791
2021-04-23 10:08:21.203300,-7.442688
2021-04-23 10:08:21.218930,-21.0191
2021-04-23 10:08:21.234550,-40.74304
2021-04-23 10:08:21.250180,-61.48303
2021-04-23 10:08:21.265800,-78.53717
2021-04-23 10:08:21.281430,-88.72974
2021-04-23 10:08:21.297060,-90.45325
2021-04-23 10:08:21.312680,-83.16785
2021-04-23 10:08:21.328310,-67.41998
2021-04-23 10:08:21.343930,-45.17542
2021-04-23 10:08:21.359560,-20.32715
2021-04-23 10:08:21.375190,1.722778
2021-04-23 10:08:21.390810,15.65277
2021-04-23 10:08:21.406440,18.42334
2021-04-23 10:08:21.422060,10.91443
2021-04-23 10:08:21.437690,-2.131531
2021-04-23 10:08:21.453310,-13.98041
2021-04-23 10:08:21.468940,-18.78052
2021-04-23 10:08:21.484570,-13.74445
2021-04-23 10:08:21.500190,0.2266846
2021-04-23 10:08:21.515820,19.78162
2021-04-23 10:08:21.531440,41.13922
2021-04-23 10:08:21.547070,61.6203
2021-04-23 10:08:21.562690,80.07471
2021-04-23 10:08:21.578320,96.14996
2021-04-23 10:08:21.593950,109.5095
2021-04-23 10:08:21.609570,119.3428
2021-04-23 10:08:21.625200,124.818
2021-04-23 10:08:21.640820,125.7479
2021-04-23 10:08:21.656450,123.1343
2021-04-23 10:08:21.672070,119.0469
2021-04-23 10:08:21.687700,115.8181
2021-04-23 10:08:21.703330,115.2489
2021-04-23 10:08:21.718950,117.9895
2021-04-23 10:08:21.734580,123.5523
2021-04-23 10:08:21.750200,130.7218
2021-04-23 10:08:21.765830,138.1411
2021-04-23 10:08:21.781450,144.55
2021-04-23 10:08:21.797080,148.7637
2021-04-23 10:08:21.812710,149.4263
2021-04-23 10:08:21.828330,144.8341
2021-04-23 10:08:21.843960,133.1491
2021-04-23 10:08:21.859580,112.9363
2021-04-23 10:08:21.875210,83.84045
2021-04-23 10:08:21.890830,47.07626
2021-04-23 10:08:21.906460,5.416016
2021-04-23 10:08:21.922090,-37.58942
2021-04-23 10:08:21.937710,-78.72076
2021-04-23 10:08:21.953340,-116.3323
2021-04-23 10:08:21.968960,-151.03
2021-04-23 10:08:21.984590,-185.3904
2021-04-23 10:08:22.000210,-222.647
2021-04-23 10:08:22.015840,-264.9986
2021-04-23 10:08:22.031470,-312.1696
2021-04-23 10:08:22.047090,-360.991
2021-04-23 10:08:22.062720,-406.1668
2021-04-23 10:08:22.078340,-442.0249
2021-04-23 10:08:22.109590,-471.4338
2021-04-23 10:08:22.125220,-464.4001
2021-04-23 10:08:22.140850,-446.0736
2021-04-23 10:08:22.156470,-419.834
2021-04-23 10:08:22.172100,-388.5142
2021-04-23 10:08:22.187720,-354.0403
2021-04-23 10:08:22.203350,-317.4647
2021-04-23 10:08:22.218970,-279.3372
2021-04-23 10:08:22.234600,-240.0368
2021-04-23 10:08:22.250230,-199.8811
2021-04-23 10:08:22.265850,-159.0736
2021-04-23 10:08:22.281480,-117.6281
2021-04-23 10:08:22.297100,-75.26636
2021-04-23 10:08:22.312730,-31.46609
2021-04-23 10:08:22.328350,14.33069
2021-04-23 10:08:22.343980,62.33426
2021-04-23 10:08:22.359610,112.0181
2021-04-23 10:08:22.375230,161.7555
2021-04-23 10:08:22.390860,208.8269
2021-04-23 10:08:22.406480,249.9018
2021-04-23 10:08:22.422110,281.8199
2021-04-23 10:08:22.437730,302.537
2021-04-23 10:08:22.453360,311.7639
2021-04-23 10:08:22.468990,311.1028
2021-04-23 10:08:22.484610,303.5448
2021-04-23 10:08:22.500240,292.7312
2021-04-23 10:08:22.515860,282.0572
2021-04-23 10:08:22.531490,273.958
2021-04-23 10:08:22.547110,269.3781
2021-04-23 10:08:22.562740,267.7314
2021-04-23 10:08:22.578370,267.2111
2021-04-23 10:08:22.593990,265.5496
2021-04-23 10:08:22.609620,260.9256
2021-04-23 10:08:22.625240,252.6299
2021-04-23 10:08:22.640870,241.2247
2021-04-23 10:08:22.656490,228.0168
2021-04-23 10:08:22.672120,214.3777
2021-04-23 10:08:22.687750,201.0201
2021-04-23 10:08:22.703370,187.8037
2021-04-23 10:08:22.719000,174.0151
2021-04-23 10:08:22.734620,158.863
2021-04-23 10:08:22.750250,141.7819
2021-04-23 10:08:22.765870,122.4921
2021-04-23 10:08:22.781500,100.6803
2021-04-23 10:08:22.797130,75.92047
2021-04-23 10:08:22.812750,48.03842
2021-04-23 10:08:22.828380,17.84079
2021-04-23 10:08:22.844000,-12.40411
2021-04-23 10:08:22.859630,-39.07483
2021-04-23 10:08:22.875250,-58.17352
2021-04-23 10:08:22.890880,-66.90601
2021-04-23 10:08:22.906510,-64.94009
2021-04-23 10:08:22.922130,-54.86072
2021-04-23 10:08:22.937760,-41.42032
2021-04-23 10:08:22.953380,-29.74908
2021-04-23 10:08:22.969010,-23.60626
2021-04-23 10:08:22.984630,-24.26807
2021-04-23 10:08:23.000260,-30.56621
2021-04-23 10:08:23.015890,-39.84126
2021-04-23 10:08:23.031510,-49.31943
2021-04-23 10:08:23.047140,-57.16043
2021-04-23 10:08:23.062760,-62.82727
2021-04-23 10:08:23.078390,-66.8038
2021-04-23 10:08:23.094010,-69.7925
2021-04-23 10:08:23.109640,-72.18935
2021-04-23 10:08:23.125270,-73.95226
2021-04-23 10:08:23.140890,-74.86847
2021-04-23 10:08:23.156520,-75.00227
2021-04-23 10:08:23.172140,-74.75446
2021-04-23 10:08:23.187770,-74.6003
2021-04-23 10:08:23.203390,-74.59418
2021-04-23 10:08:23.219020,-74.17987
2021-04-23 10:08:23.234650,-72.33488
2021-04-23 10:08:23.250270,-68.34332
2021-04-23 10:08:23.265900,-62.45156
2021-04-23 10:08:23.281520,-56.05398
2021-04-23 10:08:23.297150,-51.33805
2021-04-23 10:08:23.312770,-50.30351
2021-04-23 10:08:23.328400,-53.80563
2021-04-23 10:08:23.344030,-61.00919
2021-04-23 10:08:23.359650,-69.69903
2021-04-23 10:08:23.375280,-77.1096
2021-04-23 10:08:23.390900,-81.34114
2021-04-23 10:08:23.406530,-82.24622
2021-04-23 10:08:23.422150,-81.50057
2021-04-23 10:08:23.437780,-81.85187
2021-04-23 10:08:23.453410,-85.52423
2021-04-23 10:08:23.469030,-92.72711
2021-04-23 10:08:23.484660,-101.0723
2021-04-23 10:08:23.500280,-106.2668
2021-04-23 10:08:23.515910,-103.7849
2021-04-23 10:08:23.531530,-90.90342
2021-04-23 10:08:23.547160,-67.8666
2021-04-23 10:08:23.562790,-37.78556
2021-04-23 10:08:23.578410,-5.560436
2021-04-23 10:08:23.594040,23.68384
2021-04-23 10:08:23.609660,45.6549
2021-04-23 10:08:23.625290,57.2706
2021-04-23 10:08:23.640910,56.53485
2021-04-23 10:08:23.656540,42.47607
2021-04-23 10:08:23.672170,15.46296
2021-04-23 10:08:23.687790,-22.23508
2021-04-23 10:08:23.703420,-66.19145
2021-04-23 10:08:23.719040,-110.4582
2021-04-23 10:08:23.734670,-148.9073
2021-04-23 10:08:23.750290,-176.8636
2021-04-23 10:08:23.765920,-192.3098
2021-04-23 10:08:23.781550,-196.0291
2021-04-23 10:08:23.797170,-190.7341
2021-04-23 10:08:23.812800,-179.6909
2021-04-23 10:08:23.828420,-165.5901
2021-04-23 10:08:23.844050,-150.0833
2021-04-23 10:08:23.859670,-134.2689
2021-04-23 10:08:23.875300,-119.1232
2021-04-23 10:08:23.890930,-105.7747
2021-04-23 10:08:23.906550,-95.04774
2021-04-23 10:08:23.922180,-86.62714
2021-04-23 10:08:23.937800,-78.53433
2021-04-23 10:08:23.953430,-67.56022
2021-04-23 10:08:23.969050,-50.50501
2021-04-23 10:08:23.984680,-25.92164
2021-04-23 10:08:24.000310,4.72887
2021-04-23 10:08:24.015930,37.20626
2021-04-23 10:08:24.031560,65.92558
2021-04-23 10:08:24.047180,86.09643
2021-04-23 10:08:24.062810,95.56464
2021-04-23 10:08:24.078440,95.42271
2021-04-23 10:08:24.094060,89.32099
2021-04-23 10:08:24.109690,81.80746
2021-04-23 10:08:24.125310,76.63222
2021-04-23 10:08:24.140940,75.592
2021-04-23 10:08:24.156560,78.2841
2021-04-23 10:08:24.172190,82.58502
2021-04-23 10:08:24.187820,85.60448
2021-04-23 10:08:24.203440,84.71854
2021-04-23 10:08:24.219070,78.50822
2021-04-23 10:08:24.234690,67.37589
2021-04-23 10:08:24.250320,53.5473
2021-04-23 10:08:24.265940,40.32153
2021-04-23 10:08:24.281570,30.75912
2021-04-23 10:08:24.297200,26.31521
2021-04-23 10:08:24.312820,26.10431
2021-04-23 10:08:24.328450,27.33172
2021-04-23 10:08:24.344070,26.70783
2021-04-23 10:08:24.359700,22.11493
2021-04-23 10:08:24.375320,13.61309
2021-04-23 10:08:24.390950,3.152924
2021-04-23 10:08:24.406580,-6.768616
2021-04-23 10:08:24.422200,-14.67761
2021-04-23 10:08:24.437830,-20.86514
2021-04-23 10:08:24.453450,-26.91563
2021-04-23 10:08:24.469080,-34.39513
2021-04-23 10:08:24.484700,-43.73383
2021-04-23 10:08:24.500330,-53.90311
2021-04-23 10:08:24.515960,-63.0271
2021-04-23 10:08:24.531580,-69.43867
2021-04-23 10:08:24.547210,-72.23361
2021-04-23 10:08:24.562830,-71.05405
2021-04-23 10:08:24.578460,-65.53262
2021-04-23 10:08:24.594080,-55.22069
2021-04-23 10:08:24.609710,-40.17473
2021-04-23 10:08:24.625340,-21.84685
2021-04-23 10:08:24.640960,-3.399933
2021-04-23 10:08:24.656590,11.08583
2021-04-23 10:08:24.672210,18.24586
2021-04-23 10:08:24.687840,16.98849
2021-04-23 10:08:24.703460,8.933472
2021-04-23 10:08:24.719090,-2.508301
2021-04-23 10:08:24.734720,-13.79279
2021-04-23 10:08:24.750340,-22.47061
2021-04-23 10:08:24.765970,-27.5517
2021-04-23 10:08:24.781590,-28.93124
2021-04-23 10:08:24.797220,-26.74628
2021-04-23 10:08:24.812840,-21.23575
2021-04-23 10:08:24.828470,-13.0701
2021-04-23 10:08:24.844100,-3.761902
2021-04-23 10:08:24.859720,4.580627
2021-04-23 10:08:24.875350,10.07178
2021-04-23 10:08:24.890970,12.06036
2021-04-23 10:08:24.906600,11.46603
2021-04-23 10:08:24.922220,10.18155
2021-04-23 10:08:24.937850,9.876221
2021-04-23 10:08:24.953480,10.99744
2021-04-23 10:08:24.969100,12.65494
2021-04-23 10:08:24.984730,13.23959
2021-04-23 10:08:25.000350,11.44156
2021-04-23 10:08:25.015980,7.080078
2021-04-23 10:08:25.031600,1.262177
2021-04-23 10:08:25.047230,-4.180634
2021-04-23 10:08:25.062860,-7.482361
2021-04-23 10:08:25.078480,-7.515167
2021-04-23 10:08:25.094110,-4.024292
2021-04-23 10:08:25.109730,2.652924
2021-04-23 10:08:25.125360,11.97601
2021-04-23 10:08:25.140980,23.41519
2021-04-23 10:08:25.156610,36.41129
2021-04-23 10:08:25.172240,50.19162
2021-04-23 10:08:25.187860,63.49429
2021-04-23 10:08:25.203490,74.74451
2021-04-23 10:08:25.219110,82.33237
2021-04-23 10:08:25.234740,85.07074
2021-04-23 10:08:25.250360,82.604
2021-04-23 10:08:25.265990,75.57196
2021-04-23 10:08:25.281620,65.51053
2021-04-23 10:08:25.297240,54.53323
2021-04-23 10:08:25.312870,44.89804
2021-04-23 10:08:25.328490,38.46426
2021-04-23 10:08:25.344120,36.34683
2021-04-23 10:08:25.359740,38.6221
2021-04-23 10:08:25.375370,44.3493
2021-04-23 10:08:25.391000,51.87973
2021-04-23 10:08:25.406620,59.40726
2021-04-23 10:08:25.422250,65.50183
2021-04-23 10:08:25.437870,69.45358
2021-04-23 10:08:25.453500,71.19272
2021-04-23 10:08:25.469120,70.87476
2021-04-23 10:08:25.484750,68.68799
2021-04-23 10:08:25.500380,64.62146
2021-04-23 10:08:25.516000,58.69958
2021-04-23 10:08:25.531630,51.22256
2021-04-23 10:08:25.547250,42.88596
2021-04-23 10:08:25.562880,34.5755
2021-04-23 10:08:25.578500,27.14691
2021-04-23 10:08:25.594130,21.14529
2021-04-23 10:08:25.609760,16.73401
2021-04-23 10:08:25.625380,13.9823
2021-04-23 10:08:25.641010,12.98007
2021-04-23 10:08:25.656630,13.76236
2021-04-23 10:08:25.672260,16.09195
2021-04-23 10:08:25.687880,19.19113
2021-04-23 10:08:25.703510,21.94629
2021-04-23 10:08:25.719140,23.48547
2021-04-23 10:08:25.734760,23.67984
2021-04-23 10:08:25.750390,23.24274
2021-04-23 10:08:25.766010,23.28726
2021-04-23 10:08:25.781640,24.53967
2021-04-23 10:08:25.797260,26.86868
2021-04-23 10:08:25.812890,29.50977
2021-04-23 10:08:25.828520,31.76944
2021-04-23 10:08:25.844140,33.6749
2021-04-23 10:08:25.859770,36.20935
2021-04-23 10:08:25.875390,40.64539
2021-04-23 10:08:25.891020,47.57416
2021-04-23 10:08:25.906640,56.31046
2021-04-23 10:08:25.922270,65.12415
2021-04-23 10:08:25.937900,72.25735
2021-04-23 10:08:25.953520,77.11023
2021-04-23 10:08:25.969150,80.77728
2021-04-23 10:08:25.984770,85.6781
2021-04-23 10:08:26.000400,94.35318
2021-04-23 10:08:26.016020,107.9371
2021-04-23 10:08:26.031650,125.2136
2021-04-23 10:08:26.047280,142.6087
2021-04-23 10:08:26.062900,155.1177
2021-04-23 10:08:26.078530,157.8479
2021-04-23 10:08:26.094150,147.5042
2021-04-23 10:08:26.109780,123.2215
2021-04-23 10:08:26.125400,86.63428
2021-04-23 10:08:26.141030,41.32538
2021-04-23 10:08:26.156660,-8.080872
2021-04-23 10:08:26.172280,-56.75867
2021-04-23 10:08:26.187910,-100.2888
2021-04-23 10:08:26.203530,-135.0427
2021-04-23 10:08:26.219160,-158.5086
2021-04-23 10:08:26.234790,-169.5193
2021-04-23 10:08:26.250410,-168.4418
2021-04-23 10:08:26.266040,-157.1985
2021-04-23 10:08:26.281660,-138.9136
2021-04-23 10:08:26.297290,-117.3721
2021-04-23 10:08:26.312910,-96.43507
2021-04-23 10:08:26.328540,-79.49919
2021-04-23 10:08:26.344170,-69.14755
2021-04-23 10:08:26.359790,-66.75711
2021-04-23 10:08:26.375420,-72.05557
2021-04-23 10:08:26.391040,-82.86385
2021-04-23 10:08:26.406670,-95.32806
2021-04-23 10:08:26.422290,-104.7594
2021-04-23 10:08:26.437920,-106.897
2021-04-23 10:08:26.453550,-99.25128
2021-04-23 10:08:26.469170,-81.80309
2021-04-23 10:08:26.484800,-56.89204
2021-04-23 10:08:26.500420,-28.42422
2021-04-23 10:08:26.516050,-0.7085419
2021-04-23 10:08:26.531670,22.71786
2021-04-23 10:08:26.547300,39.91828
2021-04-23 10:08:26.562930,50.99376
2021-04-23 10:08:26.578550,57.98827
2021-04-23 10:08:26.594180,64.18107
2021-04-23 10:08:26.609800,72.8273
2021-04-23 10:08:26.625430,85.76456
2021-04-23 10:08:26.641050,102.4698
2021-04-23 10:08:26.656680,120.2126
2021-04-23 10:08:26.672310,135.3604
2021-04-23 10:08:26.687930,145.1548
2021-04-23 10:08:26.703560,149.1821
2021-04-23 10:08:26.719180,149.5181
2021-04-23 10:08:26.734810,149.4178
2021-04-23 10:08:26.750430,151.441
2021-04-23 10:08:26.766060,156.0759
2021-04-23 10:08:26.781690,161.5959
2021-04-23 10:08:26.797310,165.2758
2021-04-23 10:08:26.812940,165.1372
2021-04-23 10:08:26.828560,160.9348
2021-04-23 10:08:26.844190,153.9984
2021-04-23 10:08:26.859810,145.9493
2021-04-23 10:08:26.875440,137.2329
2021-04-23 10:08:26.891070,126.5376
2021-04-23 10:08:26.906690,111.2737
2021-04-23 10:08:26.922320,89.02596
2021-04-23 10:08:26.937940,58.84231
2021-04-23 10:08:26.953570,21.80044
2021-04-23 10:08:26.969190,-19.63001
2021-04-23 10:08:26.984820,-62.74356
2021-04-23 10:08:27.000450,-105.7163
2021-04-23 10:08:27.016070,-147.7848
2021-04-23 10:08:27.031700,-188.8299
2021-04-23 10:08:27.047320,-228.7417
2021-04-23 10:08:27.062950,-266.983
2021-04-23 10:08:27.078570,-302.9014
2021-04-23 10:08:27.094200,-336.4354
2021-04-23 10:08:27.109830,-368.7034
2021-04-23 10:08:27.125450,-401.5286
2021-04-23 10:08:27.141080,-435.9442
2021-04-23 10:08:27.156700,-470.5165
2021-04-23 10:08:27.172330,-500.6227
2021-04-23 10:08:27.187950,-519.4815
2021-04-23 10:08:27.203580,-520.8382
2021-04-23 10:08:27.219210,-501.9306
2021-04-23 10:08:27.234830,-465.1748
2021-04-23 10:08:27.250460,-417.5195
2021-04-23 10:08:27.266080,-367.6816
2021-04-23 10:08:27.281710,-322.6923
2021-04-23 10:08:27.297330,-285.6783
2021-04-23 10:08:27.312960,-255.7164
2021-04-23 10:08:27.328590,-229.6201
2021-04-23 10:08:27.344210,-204.1736
2021-04-23 10:08:27.359840,-177.5571
2021-04-23 10:08:27.375460,-149.4242
2021-04-23 10:08:27.391090,-120.0614
2021-04-23 10:08:27.406710,-89.78873
2021-04-23 10:08:27.422340,-58.87444
2021-04-23 10:08:27.437970,-27.94798
2021-04-23 10:08:27.453590,1.823673
2021-04-23 10:08:27.469220,29.26306
2021-04-23 10:08:27.484840,53.90761
2021-04-23 10:08:27.500470,76.29536
2021-04-23 10:08:27.516090,97.58775
2021-04-23 10:08:27.531720,118.6453
2021-04-23 10:08:27.547350,139.0884
2021-04-23 10:08:27.562970,157.2823
2021-04-23 10:08:27.578600,171.1282
2021-04-23 10:08:27.594220,179.2649
2021-04-23 10:08:27.609850,181.9103
2021-04-23 10:08:27.625470,180.8279
2021-04-23 10:08:27.641100,178.5329
2021-04-23 10:08:27.656730,177.3572
2021-04-23 10:08:27.672350,178.7365
2021-04-23 10:08:27.687980,183.1535
2021-04-23 10:08:27.703600,190.5849
2021-04-23 10:08:27.719230,200.9099
2021-04-23 10:08:27.734850,214.0718
2021-04-23 10:08:27.750480,229.9445
2021-04-23 10:08:27.766110,248.0468
2021-04-23 10:08:27.781730,267.225
2021-04-23 10:08:27.797360,285.8651
2021-04-23 10:08:27.812980,302.3232
2021-04-23 10:08:27.828610,315.4528
2021-04-23 10:08:27.844230,324.8044
2021-04-23 10:08:27.859860,330.2372
2021-04-23 10:08:27.875490,331.0654
2021-04-23 10:08:27.891110,325.3404
2021-04-23 10:08:27.906740,310.0284
2021-04-23 10:08:27.922360,282.2873
2021-04-23 10:08:27.937990,241.469
2021-04-23 10:08:27.953610,190.4325
2021-04-23 10:08:27.969240,135.3441
2021-04-23 10:08:27.984870,83.83636
2021-04-23 10:08:28.000490,42.35062
2021-04-23 10:08:28.016120,14.16278
2021-04-23 10:08:28.031740,-0.8558044
2021-04-23 10:08:28.047370,-5.095093
2021-04-23 10:08:28.062990,-1.701752
2021-04-23 10:08:28.078620,6.308746
2021-04-23 10:08:28.094250,15.90997
2021-04-23 10:08:28.109870,23.56985
2021-04-23 10:08:28.125500,25.63263
2021-04-23 10:08:28.141120,19.62869
2021-04-23 10:08:28.156750,5.865906
2021-04-23 10:08:28.172370,-11.79446
2021-04-23 10:08:28.188000,-27.08353
2021-04-23 10:08:28.203630,-33.94937
2021-04-23 10:08:28.219250,-29.3085
2021-04-23 10:08:28.234880,-14.46292
2021-04-23 10:08:28.250500,5.572876
2021-04-23 10:08:28.266130,24.55344
2021-04-23 10:08:28.281750,37.60735
2021-04-23 10:08:28.297380,42.81361
2021-04-23 10:08:28.313010,41.14377
2021-04-23 10:08:28.328630,35.11145
2021-04-23 10:08:28.344260,27.22668
2021-04-23 10:08:28.359880,19.20702
2021-04-23 10:08:28.375510,11.94051
2021-04-23 10:08:28.391130,6.006241
2021-04-23 10:08:28.406760,2.052002
2021-04-23 10:08:28.422390,0.562561
2021-04-23 10:08:28.438010,1.259415
2021-04-23 10:08:28.453640,2.625275
2021-04-23 10:08:28.469260,1.847076
2021-04-23 10:08:28.484890,-4.31472
2021-04-23 10:08:28.500510,-18.14921
2021-04-23 10:08:28.516140,-39.80515
2021-04-23 10:08:28.531770,-66.66142
2021-04-23 10:08:28.547390,-93.79974
2021-04-23 10:08:28.563020,-115.4698
2021-04-23 10:08:28.578640,-126.9735
2021-04-23 10:08:28.594270,-126.2437
2021-04-23 10:08:28.609890,-114.6108
2021-04-23 10:08:28.625520,-96.32706
2021-04-23 10:08:28.641150,-76.95706
2021-04-23 10:08:28.656770,-61.65495
2021-04-23 10:08:28.672400,-53.65158
2021-04-23 10:08:28.688020,-53.75954
2021-04-23 10:08:28.703650,-60.89036
2021-04-23 10:08:28.719280,-73.00067
2021-04-23 10:08:28.734900,-87.93675
2021-04-23 10:08:28.750530,-103.7928
2021-04-23 10:08:28.766150,-118.8038
2021-04-23 10:08:28.781780,-131.1047
2021-04-23 10:08:28.797400,-139.0679
2021-04-23 10:08:28.813030,-141.822
2021-04-23 10:08:28.828660,-140.0184
2021-04-23 10:08:28.844280,-136.0773
2021-04-23 10:08:28.859910,-133.3328
2021-04-23 10:08:28.875530,-134.4227
2021-04-23 10:08:28.891160,-139.4676
2021-04-23 10:08:28.906780,-145.1976
2021-04-23 10:08:28.922410,-145.6497
2021-04-23 10:08:28.938040,-134.6503
2021-04-23 10:08:28.953660,-108.5704
2021-04-23 10:08:28.969290,-68.39626
2021-04-23 10:08:28.984910,-19.74554
2021-04-23 10:08:29.000540,29.06735
2021-04-23 10:08:29.016160,70.01944
2021-04-23 10:08:29.031790,98.01016
2021-04-23 10:08:29.047420,112.0537
2021-04-23 10:08:29.063040,114.6624
2021-04-23 10:08:29.078670,109.9499
2021-04-23 10:08:29.094290,101.7262
2021-04-23 10:08:29.109920,92.32919
2021-04-23 10:08:29.125540,82.58991
2021-04-23 10:08:29.141170,72.55982
2021-04-23 10:08:29.156800,62.25058
2021-04-23 10:08:29.172420,51.91207
2021-04-23 10:08:29.188050,41.73866
2021-04-23 10:08:29.203670,31.29805
2021-04-23 10:08:29.219300,19.18431
2021-04-23 10:08:29.234920,3.383096
2021-04-23 10:08:29.250550,-17.7659
2021-04-23 10:08:29.266180,-44.32446
2021-04-23 10:08:29.281800,-74.01099
2021-04-23 10:08:29.297430,-102.5895
2021-04-23 10:08:29.313050,-125.3776
2021-04-23 10:08:29.328680,-139.0792
2021-04-23 10:08:29.344300,-143.0561
2021-04-23 10:08:29.359930,-139.1511
2021-04-23 10:08:29.375560,-130.4311
2021-04-23 10:08:29.391180,-119.6173
2021-04-23 10:08:29.406810,-108.3043
2021-04-23 10:08:29.422430,-97.09843
2021-04-23 10:08:29.438060,-86.51671
2021-04-23 10:08:29.453680,-77.74815
2021-04-23 10:08:29.469310,-72.51511
2021-04-23 10:08:29.484940,-72.22971
2021-04-23 10:08:29.500560,-76.87643
2021-04-23 10:08:29.516190,-84.66856
2021-04-23 10:08:29.531810,-92.70795
2021-04-23 10:08:29.547440,-98.32886
2021-04-23 10:08:29.563060,-100.0786
2021-04-23 10:08:29.578690,-97.98996
2021-04-23 10:08:29.594320,-92.82489
2021-04-23 10:08:29.609940,-84.94067
2021-04-23 10:08:29.625570,-73.63495
2021-04-23 10:08:29.641190,-57.42293
2021-04-23 10:08:29.656820,-35.1209
2021-04-23 10:08:29.672440,-6.903732
2021-04-23 10:08:29.688070,25.28139
2021-04-23 10:08:29.703700,58.30974
2021-04-23 10:08:29.719320,89.24983
2021-04-23 10:08:29.734950,116.722
2021-04-23 10:08:29.750570,141.3815
2021-04-23 10:08:29.766200,165.2021
2021-04-23 10:08:29.781820,190.0613
2021-04-23 10:08:29.797450,216.4913
2021-04-23 10:08:29.813080,243.3528
2021-04-23 10:08:29.828700,268.4234
2021-04-23 10:08:29.844330,289.3159
2021-04-23 10:08:29.859950,303.9825
2021-04-23 10:08:29.875580,310.4919
2021-04-23 10:08:29.891200,306.641
2021-04-23 10:08:29.906830,290.0443
2021-04-23 10:08:29.922460,259.1776
2021-04-23 10:08:29.938080,214.8811
2021-04-23 10:08:29.953710,161.1258
2021-04-23 10:08:29.969330,104.346
2021-04-23 10:08:29.984960,51.33971
2021-04-23 10:08:30.000580,7.005814
2021-04-23 10:08:30.016210,-26.78764
2021-04-23 10:08:30.031840,-50.71658
2021-04-23 10:08:30.047460,-66.3902
2021-04-23 10:08:30.063090,-74.9413
2021-04-23 10:08:30.078710,-76.79765
2021-04-23 10:08:30.094340,-72.69562
2021-04-23 10:08:30.109960,-64.63585
2021-04-23 10:08:30.125590,-55.75095
2021-04-23 10:08:30.141220,-48.7697
2021-04-23 10:08:30.156840,-44.19733
2021-04-23 10:08:30.172470,-39.57513
2021-04-23 10:08:30.188090,-30.65144
2021-04-23 10:08:30.203720,-14.16412
2021-04-23 10:08:30.219340,9.737488
2021-04-23 10:08:30.234970,36.76582
2021-04-23 10:08:30.250600,60.17993
2021-04-23 10:08:30.266220,73.86617
2021-04-23 10:08:30.281850,75.12154
2021-04-23 10:08:30.297470,65.52507
2021-04-23 10:08:30.313100,49.66391
2021-04-23 10:08:30.328720,32.76428
2021-04-23 10:08:30.344350,18.48528
2021-04-23 10:08:30.359980,8.181259
2021-04-23 10:08:30.375600,1.546768
2021-04-23 10:08:30.391230,-2.18837
2021-04-23 10:08:30.406850,-3.440247
2021-04-23 10:08:30.422480,-2.274094
2021-04-23 10:08:30.438100,0.7901917
2021-04-23 10:08:30.453730,4.241776
2021-04-23 10:08:30.469360,5.835899
2021-04-23 10:08:30.484980,3.576515
2021-04-23 10:08:30.500610,-3.076561
2021-04-23 10:08:30.516230,-12.63145
2021-04-23 10:08:30.531860,-22.19905
2021-04-23 10:08:30.547480,-28.92966
2021-04-23 10:08:30.563110,-31.45249
2021-04-23 10:08:30.578740,-30.53555
2021-04-23 10:08:30.594360,-28.53136
2021-04-23 10:08:30.609990,-27.95186
2021-04-23 10:08:30.625610,-30.03773
2021-04-23 10:08:30.641240,-34.1472
2021-04-23 10:08:30.656860,-38.09885
2021-04-23 10:08:30.672490,-39.391
2021-04-23 10:08:30.688120,-36.44278
2021-04-23 10:08:30.703740,-29.35079
2021-04-23 10:08:30.719370,-19.68584
2021-04-23 10:08:30.734990,-9.394762
2021-04-23 10:08:30.750620,0.4159851
2021-04-23 10:08:30.766240,10.28554
2021-04-23 10:08:30.781870,22.26767
2021-04-23 10:08:30.797500,38.95776
2021-04-23 10:08:30.813120,61.92001
2021-04-23 10:08:30.828750,90.4635
2021-04-23 10:08:30.844370,121.2344
2021-04-23 10:08:30.860000,148.9414
2021-04-23 10:08:30.875620,168.0624
2021-04-23 10:08:30.891250,174.5766
2021-04-23 10:08:30.906880,167.1903
2021-04-23 10:08:30.922500,147.558
2021-04-23 10:08:30.938130,119.6416
2021-04-23 10:08:30.953750,88.52467
2021-04-23 10:08:30.969380,59.14921
2021-04-23 10:08:30.985000,35.23915
2021-04-23 10:08:31.000630,18.51692
2021-04-23 10:08:31.016260,8.395363
2021-04-23 10:08:31.031880,2.17437
2021-04-23 10:08:31.047510,-4.014236
2021-04-23 10:08:31.063130,-13.87273
2021-04-23 10:08:31.078760,-29.53294
2021-04-23 10:08:31.094390,-50.88486
2021-04-23 10:08:31.110010,-75.73898
2021-04-23 10:08:31.125640,-100.7122
2021-04-23 10:08:31.141260,-122.3389
2021-04-23 10:08:31.156890,-137.9908
2021-04-23 10:08:31.172510,-146.159
2021-04-23 10:08:31.188140,-146.5473
2021-04-23 10:08:31.203770,-140.1366
2021-04-23 10:08:31.219390,-129.4275
2021-04-23 10:08:31.235020,-118.3707
2021-04-23 10:08:31.250640,-111.7091
2021-04-23 10:08:31.266270,-113.4751
2021-04-23 10:08:31.281890,-125.2393
2021-04-23 10:08:31.297520,-145.0875
2021-04-23 10:08:31.313150,-168.0706
2021-04-23 10:08:31.328770,-188.3452
2021-04-23 10:08:31.344400,-201.6553
2021-04-23 10:08:31.360020,-206.9103
2021-04-23 10:08:31.375650,-205.6504
2021-04-23 10:08:31.391270,-200.2691
2021-04-23 10:08:31.406900,-191.7214
2021-04-23 10:08:31.422530,-178.577
2021-04-23 10:08:31.438150,-157.9071
2021-04-23 10:08:31.453780,-127.1346
2021-04-23 10:08:31.469400,-85.60651
2021-04-23 10:08:31.485030,-34.92198
2021-04-23 10:08:31.500650,21.96407
2021-04-23 10:08:31.516280,81.67067
2021-04-23 10:08:31.531910,140.4014
2021-04-23 10:08:31.547530,193.3578
2021-04-23 10:08:31.563160,234.3248
2021-04-23 10:08:31.578780,256.5044
2021-04-23 10:08:31.594410,254.7451
2021-04-23 10:08:31.610030,228.1562
2021-04-23 10:08:31.625660,181.1319
2021-04-23 10:08:31.641290,121.9471
2021-04-23 10:08:31.656910,59.41313
2021-04-23 10:08:31.672540,-0.2048035
2021-04-23 10:08:31.688160,-54.45149
2021-04-23 10:08:31.703790,-103.1025
2021-04-23 10:08:31.719410,-145.5908
2021-04-23 10:08:31.735040,-178.9686
2021-04-23 10:08:31.750670,-198.3405
2021-04-23 10:08:31.766290,-199.3628
2021-04-23 10:08:31.781920,-181.304
2021-04-23 10:08:31.797540,-148.7419
2021-04-23 10:08:31.813170,-110.4134
2021-04-23 10:08:31.828790,-76.27298
2021-04-23 10:08:31.844420,-54.02861
2021-04-23 10:08:31.860050,-47.30551
2021-04-23 10:08:31.875670,-55.55846
2021-04-23 10:08:31.891300,-75.73299
2021-04-23 10:08:31.906920,-103.791
2021-04-23 10:08:31.922550,-135.2566
2021-04-23 10:08:31.938170,-165.0011
2021-04-23 10:08:31.953800,-186.5932
2021-04-23 10:08:31.969430,-193.075
2021-04-23 10:08:31.985050,-179.3125
2021-04-23 10:08:32.000680,-144.8967
2021-04-23 10:08:32.016300,-95.62299
2021-04-23 10:08:32.031930,-42.26464
2021-04-23 10:08:32.047550,3.323429
2021-04-23 10:08:32.063180,32.82661
2021-04-23 10:08:32.078810,44.12012
2021-04-23 10:08:32.094430,40.32824
2021-04-23 10:08:32.110060,26.1242
2021-04-23 10:08:32.125680,3.98567
2021-04-23 10:08:32.141310,-26.90917
2021-04-23 10:08:32.156930,-68.32103
2021-04-23 10:08:32.172560,-118.9662
2021-04-23 10:08:32.188190,-172.167
2021-04-23 10:08:32.203810,-216.8297
2021-04-23 10:08:32.219440,-241.9019
2021-04-23 10:08:32.235060,-241.3019
2021-04-23 10:08:32.250690,-216.6164
2021-04-23 10:08:32.266310,-175.674
2021-04-23 10:08:32.281940,-128.2966
2021-04-23 10:08:32.297570,-81.83092
2021-04-23 10:08:32.313190,-38.9875
2021-04-23 10:08:32.328820,1.113159
2021-04-23 10:08:32.344440,40.42767
2021-04-23 10:08:32.360070,79.7661
2021-04-23 10:08:32.375690,118.3129
2021-04-23 10:08:32.391320,154.6305
2021-04-23 10:08:32.406950,187.9842
2021-04-23 10:08:32.422570,218.9504
2021-04-23 10:08:32.438200,248.4887
2021-04-23 10:08:32.453820,276.6083
2021-04-23 10:08:32.469450,301.3507
2021-04-23 10:08:32.485070,318.9802
2021-04-23 10:08:32.500700,325.0626
2021-04-23 10:08:32.516330,316.0089
2021-04-23 10:08:32.531950,290.5687
2021-04-23 10:08:32.547580,250.4782
2021-04-23 10:08:32.563200,200.3141
2021-04-23 10:08:32.578830,146.6919
2021-04-23 10:08:32.594450,96.86087
2021-04-23 10:08:32.610080,57.08768
2021-04-23 10:08:32.625710,31.1275
2021-04-23 10:08:32.641330,19.19492
2021-04-23 10:08:32.656960,18.02182
2021-04-23 10:08:32.672580,22.22745
2021-04-23 10:08:32.688210,26.41721
2021-04-23 10:08:32.703830,27.21976
2021-04-23 10:08:32.719460,24.26944
2021-04-23 10:08:32.735090,19.68103
2021-04-23 10:08:32.750710,16.38245
2021-04-23 10:08:32.766340,16.39682
2021-04-23 10:08:32.781960,19.85876
2021-04-23 10:08:32.797590,25.24182
2021-04-23 10:08:32.813210,30.6171
2021-04-23 10:08:32.828840,34.83951
2021-04-23 10:08:32.844470,38.12299
2021-04-23 10:08:32.860090,41.69601
2021-04-23 10:08:32.875720,46.8678
2021-04-23 10:08:32.891340,54.20181
2021-04-23 10:08:32.906970,63.0072
2021-04-23 10:08:32.922590,71.47601
2021-04-23 10:08:32.938220,77.27731
2021-04-23 10:08:32.953850,78.43921
2021-04-23 10:08:32.969470,74.1532
2021-04-23 10:08:32.985100,65.35049
2021-04-23 10:08:33.000720,54.80222
2021-04-23 10:08:33.016350,46.34219
2021-04-23 10:08:33.031970,43.61642
2021-04-23 10:08:33.047600,48.47269
2021-04-23 10:08:33.063230,59.94614
2021-04-23 10:08:33.078850,74.3768
2021-04-23 10:08:33.094480,86.78473
2021-04-23 10:08:33.110100,92.91772
2021-04-23 10:08:33.125730,91.00098
2021-04-23 10:08:33.141350,82.43121
2021-04-23 10:08:33.156980,70.92792
2021-04-23 10:08:33.172610,60.96143
2021-04-23 10:08:33.188230,55.94269
2021-04-23 10:08:33.203860,57.18634
2021-04-23 10:08:33.219480,63.83337
2021-04-23 10:08:33.235110,73.65536
2021-04-23 10:08:33.250730,84.06305
2021-04-23 10:08:33.266360,92.79437
2021-04-23 10:08:33.281990,98.25861
2021-04-23 10:08:33.297610,99.27292
2021-04-23 10:08:33.313240,94.99261
2021-04-23 10:08:33.328860,84.77496
2021-04-23 10:08:33.344490,68.3866
2021-04-23 10:08:33.360120,46.19717
2021-04-23 10:08:33.375740,19.43405
2021-04-23 10:08:33.391370,-9.875977
2021-04-23 10:08:33.406990,-39.24628
2021-04-23 10:08:33.422620,-66.32953
2021-04-23 10:08:33.438240,-89.70807
2021-04-23 10:08:33.453870,-109.2979
2021-04-23 10:08:33.469500,-126.417
2021-04-23 10:08:33.485120,-143.146
2021-04-23 10:08:33.500750,-161.4587
2021-04-23 10:08:33.516370,-182.2554
2021-04-23 10:08:33.532000,-204.8952
2021-04-23 10:08:33.547620,-227.27
2021-04-23 10:08:33.563250,-246.4044
2021-04-23 10:08:33.578880,-259.3659
2021-04-23 10:08:33.594500,-264.0477
2021-04-23 10:08:33.610130,-259.7784
2021-04-23 10:08:33.625750,-247.4521
2021-04-23 10:08:33.641380,-229.4462
2021-04-23 10:08:33.657000,-209.1099
2021-04-23 10:08:33.672630,-190.009
2021-04-23 10:08:33.688260,-174.9567
2021-04-23 10:08:33.703880,-164.9106
2021-04-23 10:08:33.719510,-158.4236
2021-04-23 10:08:33.735130,-151.8247
2021-04-23 10:08:33.750760,-140.3916
2021-04-23 10:08:33.766380,-120.0516
2021-04-23 10:08:33.782010,-89.04535
2021-04-23 10:08:33.797640,-48.64551
2021-04-23 10:08:33.813260,-2.70993
2021-04-23 10:08:33.828890,43.68326
2021-04-23 10:08:33.844510,85.84204
2021-04-23 10:08:33.860140,120.5625
2021-04-23 10:08:33.875760,146.465
2021-04-23 10:08:33.891390,163.5469
2021-04-23 10:08:33.907020,172.6836
2021-04-23 10:08:33.922640,175.2275
2021-04-23 10:08:33.938270,172.9956
2021-04-23 10:08:33.953890,168.2503
2021-04-23 10:08:33.969520,163.3404
2021-04-23 10:08:33.985140,160.226
2021-04-23 10:08:34.000770,159.7377
2021-04-23 10:08:34.016400,161.4481
2021-04-23 10:08:34.032020,163.9185
2021-04-23 10:08:34.047650,165.5215
2021-04-23 10:08:34.063270,165.0708
2021-04-23 10:08:34.078900,162.076
2021-04-23 10:08:34.094520,156.4551
2021-04-23 10:08:34.110150,148.0178
2021-04-23 10:08:34.125780,136.3314
2021-04-23 10:08:34.141400,120.9215
2021-04-23 10:08:34.157030,101.9381
2021-04-23 10:08:34.172650,80.59549
2021-04-23 10:08:34.188280,59.21564
2021-04-23 10:08:34.203900,40.53601
2021-04-23 10:08:34.219530,26.75696
2021-04-23 10:08:34.235160,18.88568
2021-04-23 10:08:34.250780,16.62598
2021-04-23 10:08:34.266410,19.03052
2021-04-23 10:08:34.282030,25.26682
2021-04-23 10:08:34.297660,35.07382
2021-04-23 10:08:34.313280,48.52155
2021-04-23 10:08:34.328910,65.26688
2021-04-23 10:08:34.344540,83.57547
2021-04-23 10:08:34.360160,100.0641
2021-04-23 10:08:34.375790,110.2909
2021-04-23 10:08:34.391410,110.241
2021-04-23 10:08:34.407040,98.0325
2021-04-23 10:08:34.422660,74.85831
2021-04-23 10:08:34.438290,44.89722
2021-04-23 10:08:34.453920,13.91806
2021-04-23 10:08:34.469540,-12.66093
2021-04-23 10:08:34.485170,-31.35942
2021-04-23 10:08:34.500790,-41.31189
2021-04-23 10:08:34.516420,-43.8069
2021-04-23 10:08:34.532040,-41.276
2021-04-23 10:08:34.547670,-36.08708
2021-04-23 10:08:34.563300,-29.88417
2021-04-23 10:08:34.578920,-23.5435
2021-04-23 10:08:34.594550,-17.60361
2021-04-23 10:08:34.610170,-12.68707
2021-04-23 10:08:34.625800,-9.608704
2021-04-23 10:08:34.641420,-9.095566
2021-04-23 10:08:34.657050,-11.40739
2021-04-23 10:08:34.672680,-16.22746
2021-04-23 10:08:34.688300,-22.73005
2021-04-23 10:08:34.703930,-29.84476
2021-04-23 10:08:34.719550,-36.56678
2021-04-23 10:08:34.735180,-42.07874
2021-04-23 10:08:34.750800,-45.78908
2021-04-23 10:08:34.766430,-47.43426
2021-04-23 10:08:34.782060,-47.06956
2021-04-23 10:08:34.797680,-45.17062
2021-04-23 10:08:34.813310,-42.54291
2021-04-23 10:08:34.828930,-40.11
2021-04-23 10:08:34.844560,-38.64661
2021-04-23 10:08:34.860180,-38.42897
2021-04-23 10:08:34.875810,-39.07833
2021-04-23 10:08:34.891440,-39.64837
2021-04-23 10:08:34.907060,-39.03072
2021-04-23 10:08:34.922690,-36.47603
2021-04-23 10:08:34.938310,-31.96093
2021-04-23 10:08:34.953940,-26.18683
2021-04-23 10:08:34.969560,-20.24957
2021-04-23 10:08:34.985190,-15.15597
2021-04-23 10:08:35.000820,-11.31246
2021-04-23 10:08:35.016440,-8.330248
2021-04-23 10:08:35.032070,-5.246128
2021-04-23 10:08:35.047690,-1.177166
2021-04-23 10:08:35.063320,4.115849
2021-04-23 10:08:35.078940,9.928493
2021-04-23 10:08:35.094570,14.91576
2021-04-23 10:08:35.110200,17.83127
2021-04-23 10:08:35.125820,18.18099
2021-04-23 10:08:35.141450,16.53147
2021-04-23 10:08:35.157070,14.20389
2021-04-23 10:08:35.172700,12.71569
2021-04-23 10:08:35.188320,13.29708
2021-04-23 10:08:35.203950,16.66357
2021-04-23 10:08:35.219580,22.96147
2021-04-23 10:08:35.235200,31.77747
2021-04-23 10:08:35.250830,41.95078
2021-04-23 10:08:35.266450,51.41779
2021-04-23 10:08:35.282080,57.41168
2021-04-23 10:08:35.297700,56.96794
2021-04-23 10:08:35.313330,47.90291
2021-04-23 10:08:35.328960,29.57895
2021-04-23 10:08:35.344580,3.297485
2021-04-23 10:08:35.360210,-28.1302
2021-04-23 10:08:35.375830,-61.36697
2021-04-23 10:08:35.391460,-93.72327
2021-04-23 10:08:35.407080,-124.047
2021-04-23 10:08:35.422710,-152.9613
2021-04-23 10:08:35.438340,-182.3595
2021-04-23 10:08:35.453960,-214.1919
2021-04-23 10:08:35.469590,-249.0335
2021-04-23 10:08:35.485210,-285.1377
2021-04-23 10:08:35.500840,-318.3341
2021-04-23 10:08:35.516460,-343.1429
2021-04-23 10:08:35.532090,-354.5628
2021-04-23 10:08:35.547720,-349.7339
2021-04-23 10:08:35.563340,-328.589
2021-04-23 10:08:35.578970,-293.3575
2021-04-23 10:08:35.594590,-247.3664
2021-04-23 10:08:35.610220,-194.0405
2021-04-23 10:08:35.625840,-136.6855
2021-04-23 10:08:35.641470,-78.82474
2021-04-23 10:08:35.657100,-24.69116
2021-04-23 10:08:35.672720,20.97922
2021-04-23 10:08:35.688350,54.11102
2021-04-23 10:08:35.703970,72.66032
2021-04-23 10:08:35.719600,77.53667
2021-04-23 10:08:35.735220,72.47744
2021-04-23 10:08:35.750850,62.6888
2021-04-23 10:08:35.766480,53.10532
2021-04-23 10:08:35.782100,47.09064
2021-04-23 10:08:35.797730,45.93026
2021-04-23 10:08:35.813350,49.12989
2021-04-23 10:08:35.828980,55.1044
2021-04-23 10:08:35.844600,61.70683
2021-04-23 10:08:35.860230,66.67857
2021-04-23 10:08:35.875860,67.97282
2021-04-23 10:08:35.891480,64.23734
2021-04-23 10:08:35.907110,55.44641
2021-04-23 10:08:35.922730,43.30125
2021-04-23 10:08:35.938360,31.04941
2021-04-23 10:08:35.953990,22.7519
2021-04-23 10:08:35.969610,22.02446
2021-04-23 10:08:35.985240,30.6938
2021-04-23 10:08:36.000860,48.13094
2021-04-23 10:08:36.016490,71.42026
2021-04-23 10:08:36.032110,96.32162
2021-04-23 10:08:36.047740,118.7249
2021-04-23 10:08:36.063370,136.0857
2021-04-23 10:08:36.078990,148.1735
2021-04-23 10:08:36.094620,156.878
2021-04-23 10:08:36.110240,165.1645
2021-04-23 10:08:36.125870,175.3493
2021-04-23 10:08:36.141490,187.767
2021-04-23 10:08:36.157120,200.2562
2021-04-23 10:08:36.172750,208.838
2021-04-23 10:08:36.188370,209.278
2021-04-23 10:08:36.204000,198.6393
2021-04-23 10:08:36.219620,176.0626
2021-04-23 10:08:36.235250,142.4899
2021-04-23 10:08:36.250870,99.77167
2021-04-23 10:08:36.266500,49.79777
2021-04-23 10:08:36.282130,-5.533367
2021-04-23 10:08:36.297750,-63.74014
2021-04-23 10:08:36.313380,-121.1471
2021-04-23 10:08:36.329000,-172.9023
2021-04-23 10:08:36.344630,-214.1189
2021-04-23 10:08:36.360250,-241.4858
2021-04-23 10:08:36.375880,-254.5931
2021-04-23 10:08:36.391510,-255.9583
2021-04-23 10:08:36.407130,-249.8325
2021-04-23 10:08:36.422760,-240.337
2021-04-23 10:08:36.438380,-229.9108
2021-04-23 10:08:36.454010,-218.8509
2021-04-23 10:08:36.469630,-205.9943
2021-04-23 10:08:36.485260,-189.981
2021-04-23 10:08:36.500890,-170.3549
2021-04-23 10:08:36.516510,-147.8457
2021-04-23 10:08:36.532140,-123.9412
2021-04-23 10:08:36.547760,-100.0849
2021-04-23 10:08:36.563390,-77.16033
2021-04-23 10:08:36.579010,-55.29579
2021-04-23 10:08:36.594640,-34.17901
2021-04-23 10:08:36.610270,-13.36661
2021-04-23 10:08:36.625890,7.440186
2021-04-23 10:08:36.641520,28.23143
2021-04-23 10:08:36.657140,48.62117
2021-04-23 10:08:36.672770,67.74637
2021-04-23 10:08:36.688390,84.20714
2021-04-23 10:08:36.704020,96.20088
2021-04-23 10:08:36.719650,101.9097
2021-04-23 10:08:36.735270,99.98308
2021-04-23 10:08:36.750900,90.18288
2021-04-23 10:08:36.766520,73.81496
2021-04-23 10:08:36.782150,53.69907
2021-04-23 10:08:36.797770,33.57341
2021-04-23 10:08:36.813400,16.76418
2021-04-23 10:08:36.829030,4.937744
2021-04-23 10:08:36.844650,-2.672577
2021-04-23 10:08:36.860280,-8.883163
2021-04-23 10:08:36.875900,-17.1794
2021-04-23 10:08:36.891530,-29.7926
2021-04-23 10:08:36.907150,-46.5155
2021-04-23 10:08:36.922780,-64.89908
2021-04-23 10:08:36.938410,-81.32895
2021-04-23 10:08:36.954030,-92.4805
2021-04-23 10:08:36.969660,-96.13763
2021-04-23 10:08:36.985280,-91.27914
2021-04-23 10:08:37.000910,-77.86151
2021-04-23 10:08:37.016530,-57.02191
2021-04-23 10:08:37.032160,-31.44293
2021-04-23 10:08:37.047790,-5.363373
2021-04-23 10:08:37.063410,16.29486
2021-04-23 10:08:37.079040,30.03366
2021-04-23 10:08:37.094660,35.75784
2021-04-23 10:08:37.110290,37.39169
2021-04-23 10:08:37.125910,41.34875
2021-04-23 10:08:37.141540,53.42651
2021-04-23 10:08:37.157170,75.73566
2021-04-23 10:08:37.172790,105.79
2021-04-23 10:08:37.188420,137.7625
2021-04-23 10:08:37.204040,165.4709
2021-04-23 10:08:37.219670,185.2112
2021-04-23 10:08:37.235290,196.7962
2021-04-23 10:08:37.250920,202.7003
2021-04-23 10:08:37.266550,206.1111
2021-04-23 10:08:37.282170,209.0351
2021-04-23 10:08:37.297800,211.5316
2021-04-23 10:08:37.313420,212.0937
2021-04-23 10:08:37.329050,208.8873
2021-04-23 10:08:37.344670,200.9798
2021-04-23 10:08:37.360300,189.0369
2021-04-23 10:08:37.375930,175.1437
2021-04-23 10:08:37.391550,161.9435
2021-04-23 10:08:37.407180,151.4982
2021-04-23 10:08:37.422800,144.4134
2021-04-23 10:08:37.438430,139.6653
2021-04-23 10:08:37.454050,135.259
2021-04-23 10:08:37.469680,129.4219
2021-04-23 10:08:37.485310,121.5485
2021-04-23 10:08:37.500930,112.5617
2021-04-23 10:08:37.516560,104.1823
2021-04-23 10:08:37.532180,97.73999
2021-04-23 10:08:37.547810,93.17221
2021-04-23 10:08:37.563430,88.91434
2021-04-23 10:08:37.579060,82.71902
2021-04-23 10:08:37.594690,73.05984
2021-04-23 10:08:37.610310,60.0676
2021-04-23 10:08:37.625940,45.41083
2021-04-23 10:08:37.641560,31.26065
2021-04-23 10:08:37.657190,18.76382
2021-04-23 10:08:37.672810,7.292725
2021-04-23 10:08:37.688440,-5.351746
2021-04-23 10:08:37.704070,-21.69327
2021-04-23 10:08:37.719690,-43.25705
2021-04-23 10:08:37.735320,-69.99796
2021-04-23 10:08:37.750940,-100.7041
2021-04-23 10:08:37.766570,-133.8661
2021-04-23 10:08:37.782190,-168.1051
2021-04-23 10:08:37.797820,-201.9319
2021-04-23 10:08:37.813450,-233.0185
2021-04-23 10:08:37.829070,-258.0421
2021-04-23 10:08:37.844700,-273.1546
2021-04-23 10:08:37.860320,-275.356
2021-04-23 10:08:37.875950,-263.7127
2021-04-23 10:08:37.891570,-239.7463
2021-04-23 10:08:37.907200,-206.7902
2021-04-23 10:08:37.922830,-168.7465
2021-04-23 10:08:37.938450,-129.1176
2021-04-23 10:08:37.954080,-90.61418
2021-04-23 10:08:37.969700,-55.33781
2021-04-23 10:08:37.985330,-24.95775
2021-04-23 10:08:38.000950,-0.5201874
2021-04-23 10:08:38.016580,17.91641
2021-04-23 10:08:38.032210,31.47038
2021-04-23 10:08:38.047830,42.08557
2021-04-23 10:08:38.063460,51.82172
2021-04-23 10:08:38.079080,62.07806
2021-04-23 10:08:38.094710,73.3945
2021-04-23 10:08:38.110330,85.75296
2021-04-23 10:08:38.125960,99.0305
2021-04-23 10:08:38.141590,113.0967
2021-04-23 10:08:38.157210,127.5487
2021-04-23 10:08:38.172840,141.3541
2021-04-23 10:08:38.188460,152.8752
2021-04-23 10:08:38.204090,160.5084
2021-04-23 10:08:38.219720,163.6164
2021-04-23 10:08:38.235340,163.2091
2021-04-23 10:08:38.250970,161.767
2021-04-23 10:08:38.266590,162.072
2021-04-23 10:08:38.282220,165.6873
2021-04-23 10:08:38.297840,171.9965
2021-04-23 10:08:38.313470,178.507
2021-04-23 10:08:38.329100,182.171
2021-04-23 10:08:38.344720,181.1411
2021-04-23 10:08:38.360350,175.7808
2021-04-23 10:08:38.375970,168.2354
2021-04-23 10:08:38.391600,160.8434
2021-04-23 10:08:38.407220,154.3738
2021-04-23 10:08:38.422850,147.3157
2021-04-23 10:08:38.438480,136.7884
2021-04-23 10:08:38.454100,120.4843
2021-04-23 10:08:38.469730,98.48833
2021-04-23 10:08:38.485350,73.60937
2021-04-23 10:08:38.500980,50.08331
2021-04-23 10:08:38.516600,31.23811
2021-04-23 10:08:38.547860,6.608501
2021-04-23 10:08:38.563480,-5.830353
2021-04-23 10:08:38.579110,-22.75758
2021-04-23 10:08:38.594730,-44.14532
2021-04-23 10:08:38.610360,-66.40117
2021-04-23 10:08:38.625980,-83.98927
2021-04-23 10:08:38.641610,-92.01293
2021-04-23 10:08:38.657240,-88.75322
2021-04-23 10:08:38.672860,-76.66643
2021-04-23 10:08:38.688490,-61.52998
2021-04-23 10:08:38.704110,-50.26115
2021-04-23 10:08:38.719740,-48.48926
2021-04-23 10:08:38.735360,-59.13109
2021-04-23 10:08:38.750990,-82.01401
2021-04-23 10:08:38.766620,-114.3675
2021-04-23 10:08:38.782240,-151.7524
2021-04-23 10:08:38.797870,-189.3085
2021-04-23 10:08:38.813490,-223.0104
2021-04-23 10:08:38.829120,-250.5864
2021-04-23 10:08:38.844740,-271.5721
2021-04-23 10:08:38.860370,-286.3442
2021-04-23 10:08:38.876000,-294.6931
2021-04-23 10:08:38.891620,-294.882
2021-04-23 10:08:38.907250,-284.0949
2021-04-23 10:08:38.922870,-260.1937
2021-04-23 10:08:38.938500,-223.6634
2021-04-23 10:08:38.954120,-178.5967
2021-04-23 10:08:38.969750,-131.6516
2021-04-23 10:08:38.985380,-89.68655
2021-04-23 10:08:39.001000,-57.26056
2021-04-23 10:08:39.016630,-35.63123
2021-04-23 10:08:39.032250,-23.42993
2021-04-23 10:08:39.047880,-18.29562
2021-04-23 10:08:39.063500,-18.35165
2021-04-23 10:08:39.079130,-22.60419
2021-04-23 10:08:39.094760,-30.56134
2021-04-23 10:08:39.110380,-41.55649
2021-04-23 10:08:39.126010,-54.75363
2021-04-23 10:08:39.141630,-69.29059
2021-04-23 10:08:39.157260,-84.64017
2021-04-23 10:08:39.172880,-100.5762
2021-04-23 10:08:39.188510,-116.9037
2021-04-23 10:08:39.204140,-133.2531
2021-04-23 10:08:39.219760,-148.7911
2021-04-23 10:08:39.235390,-162.1597
2021-04-23 10:08:39.251010,-171.1782
2021-04-23 10:08:39.266640,-173.0739
2021-04-23 10:08:39.282260,-165.0899
2021-04-23 10:08:39.297890,-145.8056
2021-04-23 10:08:39.313520,-116.2569
2021-04-23 10:08:39.329140,-80.20825
2021-04-23 10:08:39.344770,-43.23129
2021-04-23 10:08:39.360390,-10.79745
2021-04-23 10:08:39.376020,13.19827
2021-04-23 10:08:39.391640,28.11212
2021-04-23 10:08:39.407270,36.62759
2021-04-23 10:08:39.422900,43.78709
2021-04-23 10:08:39.438520,54.98769
2021-04-23 10:08:39.454150,74.14378
2021-04-23 10:08:39.469770,102.3678
2021-04-23 10:08:39.485400,137.5194
2021-04-23 10:08:39.501020,174.9132
2021-04-23 10:08:39.516650,207.726
2021-04-23 10:08:39.532280,229.808
2021-04-23 10:08:39.547900,237.893
2021-04-23 10:08:39.563530,232.9969
2021-04-23 10:08:39.579150,219.4803
2021-04-23 10:08:39.594780,202.8999
2021-04-23 10:08:39.610400,187.711
2021-04-23 10:08:39.626030,175.6169
2021-04-23 10:08:39.641660,165.4154
2021-04-23 10:08:39.657280,152.5406
2021-04-23 10:08:39.672910,132.3894
2021-04-23 10:08:39.688530,102.9316
2021-04-23 10:08:39.704160,66.09254
2021-04-23 10:08:39.719780,26.44992
2021-04-23 10:08:39.735410,-11.04544
2021-04-23 10:08:39.751040,-43.03439
2021-04-23 10:08:39.766660,-68.60098
2021-04-23 10:08:39.782290,-88.75859
2021-04-23 10:08:39.797910,-107.2964
2021-04-23 10:08:39.813540,-127.9571
2021-04-23 10:08:39.829160,-153.0222
2021-04-23 10:08:39.844790,-182.6513
2021-04-23 10:08:39.860420,-215.5434
2021-04-23 10:08:39.876040,-249.6503
2021-04-23 10:08:39.891670,-281.6227
2021-04-23 10:08:39.907290,-306.7047
2021-04-23 10:08:39.922920,-308.5201
2021-04-23 10:08:39.938540,-275.8257
2021-04-23 10:08:39.954170,-209.6928
2021-04-23 10:08:39.969800,-125.7812
2021-04-23 10:08:39.985420,-45.58864
2021-04-23 10:08:40.001050,15.34764
2021-04-23 10:08:40.016670,52.41876
2021-04-23 10:08:40.032300,70.25926
2021-04-23 10:08:40.047920,77.02307
2021-04-23 10:08:40.063550,79.78236
2021-04-23 10:08:40.079180,80.32041
2021-04-23 10:08:40.094800,77.59931
2021-04-23 10:08:40.110430,70.71293
2021-04-23 10:08:40.126050,61.47075
2021-04-23 10:08:40.141680,54.1038
2021-04-23 10:08:40.157300,52.75033
2021-04-23 10:08:40.172930,60.12555
2021-04-23 10:08:40.188560,76.7851
2021-04-23 10:08:40.204180,101.8211
2021-04-23 10:08:40.219810,132.021
2021-04-23 10:08:40.235430,163.8779
2021-04-23 10:08:40.251060,194.3643
2021-04-23 10:08:40.266680,221.1891
2021-04-23 10:08:40.282310,242.5123
2021-04-23 10:08:40.297940,253.6944
2021-04-23 10:08:40.313560,251.8517
2021-04-23 10:08:40.329190,237.0614
2021-04-23 10:08:40.344810,212.9903
2021-04-23 10:08:40.360440,184.9456
2021-04-23 10:08:40.376070,158.4425
2021-04-23 10:08:40.391690,137.3643
2021-04-23 10:08:40.407320,123.0955
2021-04-23 10:08:40.422940,114.3799
2021-04-23 10:08:40.438570,108.1249
2021-04-23 10:08:40.454190,101.215
2021-04-23 10:08:40.469820,91.12656
2021-04-23 10:08:40.485450,76.3661
2021-04-23 10:08:40.501070,56.17215
2021-04-23 10:08:40.516700,31.03233
2021-04-23 10:08:40.532320,3.074936
2021-04-23 10:08:40.547950,-23.94721
2021-04-23 10:08:40.563570,-45.7055
2021-04-23 10:08:40.579200,-58.95947
2021-04-23 10:08:40.594830,-62.44878
2021-04-23 10:08:40.610450,-57.86981
2021-04-23 10:08:40.626080,-49.38109
2021-04-23 10:08:40.641700,-42.12348
2021-04-23 10:08:40.657330,-39.98468
2021-04-23 10:08:40.672950,-43.87285
2021-04-23 10:08:40.688580,-51.27042
2021-04-23 10:08:40.704210,-57.30371
2021-04-23 10:08:40.719830,-56.88084
2021-04-23 10:08:40.735460,-46.66389
2021-04-23 10:08:40.751080,-26.61357
2021-04-23 10:08:40.766710,0.02484131
2021-04-23 10:08:40.782330,27.89319
2021-04-23 10:08:40.797960,51.41786
2021-04-23 10:08:40.813590,66.40425
2021-04-23 10:08:40.829210,70.81535
2021-04-23 10:08:40.844840,64.64241
2021-04-23 10:08:40.860460,49.17696
2021-04-23 10:08:40.876090,26.46791
2021-04-23 10:08:40.891710,-1.406372
2021-04-23 10:08:40.907340,-32.42863
2021-04-23 10:08:40.922970,-64.77168
2021-04-23 10:08:40.938590,-96.74522
2021-04-23 10:08:40.954220,-126.7977
2021-04-23 10:08:40.969840,-153.4812
2021-04-23 10:08:40.985470,-175.2686
2021-04-23 10:08:41.001090,-190.5207
2021-04-23 10:08:41.016720,-197.4811
2021-04-23 10:08:41.032350,-194.7713
2021-04-23 10:08:41.047970,-181.9021
2021-04-23 10:08:41.063600,-159.8908
2021-04-23 10:08:41.079220,-131.5854
2021-04-23 10:08:41.094850,-101.4283
2021-04-23 10:08:41.110470,-74.72227
2021-04-23 10:08:41.126100,-56.32001
2021-04-23 10:08:41.141730,-49.38017
2021-04-23 10:08:41.157350,-54.44725
2021-04-23 10:08:41.172980,-69.2818
2021-04-23 10:08:41.188600,-89.6357
2021-04-23 10:08:41.204230,-110.4932
2021-04-23 10:08:41.219850,-127.4741
2021-04-23 10:08:41.235480,-137.6479
2021-04-23 10:08:41.251110,-139.7006
2021-04-23 10:08:41.266730,-133.5825
2021-04-23 10:08:41.282360,-120.2182
2021-04-23 10:08:41.297980,-101.2658
2021-04-23 10:08:41.313610,-78.99704
2021-04-23 10:08:41.329230,-56.06622
2021-04-23 10:08:41.344860,-35.03618
2021-04-23 10:08:41.360490,-17.90588
2021-04-23 10:08:41.376110,-5.603836
2021-04-23 10:08:41.391740,1.950562
2021-04-23 10:08:41.407360,5.643402
2021-04-23 10:08:41.422990,6.709259
2021-04-23 10:08:41.438610,6.52916
2021-04-23 10:08:41.454240,6.710922
2021-04-23 10:08:41.469870,9.102982
2021-04-23 10:08:41.485490,15.78258
2021-04-23 10:08:41.501120,28.51462
2021-04-23 10:08:41.516740,48.21317
2021-04-23 10:08:41.532370,74.32799
2021-04-23 10:08:41.547990,104.6479
2021-04-23 10:08:41.563620,135.5008
2021-04-23 10:08:41.579250,162.452
2021-04-23 10:08:41.594870,181.5424
2021-04-23 10:08:41.610500,190.4393
2021-04-23 10:08:41.626120,189.4674
2021-04-23 10:08:41.641750,181.6959
2021-04-23 10:08:41.657370,171.6873
2021-04-23 10:08:41.673000,163.6672
2021-04-23 10:08:41.688630,159.5574
2021-04-23 10:08:41.704250,157.9586
2021-04-23 10:08:41.719880,154.66
2021-04-23 10:08:41.735500,144.5263
2021-04-23 10:08:41.751130,123.8616
2021-04-23 10:08:41.766750,92.43393
2021-04-23 10:08:41.782380,53.85697
2021-04-23 10:08:41.798010,14.43011
2021-04-23 10:08:41.813630,-18.97345
2021-04-23 10:08:41.829260,-41.15701
2021-04-23 10:08:41.844880,-49.95934
2021-04-23 10:08:41.860510,-46.41476
2021-04-23 10:08:41.876130,-34.12285
2021-04-23 10:08:41.891760,-18.40092
2021-04-23 10:08:41.907390,-5.247734
2021-04-23 10:08:41.923010,-0.5155334
2021-04-23 10:08:41.938640,-8.684326
2021-04-23 10:08:41.954260,-31.26507
2021-04-23 10:08:41.969890,-65.63363
2021-04-23 10:08:41.985510,-105.2202
2021-04-23 10:08:42.001140,-141.7189
2021-04-23 10:08:42.016770,-168.0235
2021-04-23 10:08:42.032390,-180.7733
2021-04-23 10:08:42.048020,-181.0634
2021-04-23 10:08:42.063640,-173.1378
2021-04-23 10:08:42.079270,-161.6867
2021-04-23 10:08:42.094890,-149.2499
2021-04-23 10:08:42.110520,-135.8912
2021-04-23 10:08:42.126150,-120.8781
2021-04-23 10:08:42.141770,-105.0378
2021-04-23 10:08:42.157400,-92.05072
2021-04-23 10:08:42.173020,-86.89831
2021-04-23 10:08:42.188650,-92.63708
2021-04-23 10:08:42.204270,-107.6174
2021-04-23 10:08:42.219900,-125.2653
2021-04-23 10:08:42.235530,-136.8221
2021-04-23 10:08:42.251150,-135.6282
2021-04-23 10:08:42.266780,-120.2472
2021-04-23 10:08:42.282400,-94.47133
2021-04-23 10:08:42.298030,-64.2446
2021-04-23 10:08:42.313650,-33.23524
2021-04-23 10:08:42.329280,-0.9388351
2021-04-23 10:08:42.344910,35.38101
2021-04-23 10:08:42.360530,76.44518
2021-04-23 10:08:42.376160,117.1173
2021-04-23 10:08:42.391780,146.4089
2021-04-23 10:08:42.407410,151.8802
2021-04-23 10:08:42.423030,126.2087
2021-04-23 10:08:42.438660,72.00576
2021-04-23 10:08:42.454290,2.498213
2021-04-23 10:08:42.469910,-63.00431
2021-04-23 10:08:42.485540,-106.3931
2021-04-23 10:08:42.501160,-117.5718
2021-04-23 10:08:42.516790,-97.68851
2021-04-23 10:08:42.532410,-57.72134
2021-04-23 10:08:42.548040,-13.35975
2021-04-23 10:08:42.563670,20.8443
2021-04-23 10:08:42.579290,36.22058
2021-04-23 10:08:42.594920,32.87755
2021-04-23 10:08:42.610540,18.39566
2021-04-23 10:08:42.626170,4.262238
2021-04-23 10:08:42.641790,1.399139
2021-04-23 10:08:42.657420,16.76246
2021-04-23 10:08:42.673050,52.00377
2021-04-23 10:08:42.688670,103.5735
2021-04-23 10:08:42.704300,163.6445
2021-04-23 10:08:42.719920,221.4035
2021-04-23 10:08:42.735550,266.2145
2021-04-23 10:08:42.751170,290.4988
2021-04-23 10:08:42.766800,292.457
2021-04-23 10:08:42.782430,277.1042
2021-04-23 10:08:42.798050,254.8732
2021-04-23 10:08:42.813680,237.8558
2021-04-23 10:08:42.829300,234.9866
2021-04-23 10:08:42.844930,248.4134
2021-04-23 10:08:42.860550,265.8801
2021-04-23 10:08:42.876180,272.1421
2021-04-23 10:08:42.891810,256.2709
2021-04-23 10:08:42.907430,218.6833
2021-04-23 10:08:42.923060,170.2917
2021-04-23 10:08:42.938680,124.0565
2021-04-23 10:08:42.954310,87.06622
2021-04-23 10:08:42.969930,59.04928
2021-04-23 10:08:42.985560,36.00972
2021-04-23 10:08:43.001190,16.37258
2021-04-23 10:08:43.016810,-0.1789093
2021-04-23 10:08:43.032440,-11.67663
2021-04-23 10:08:43.048060,-16.98869
2021-04-23 10:08:43.063690,-18.70554
2021-04-23 10:08:43.079320,-22.83788
2021-04-23 10:08:43.094940,-35.78792
2021-04-23 10:08:43.110570,-60.73931
2021-04-23 10:08:43.126190,-96.00537
2021-04-23 10:08:43.141820,-135.1969
2021-04-23 10:08:43.157440,-169.4746
2021-04-23 10:08:43.173070,-191.6602
2021-04-23 10:08:43.188700,-199.198
2021-04-23 10:08:43.204320,-194.5139
2021-04-23 10:08:43.219950,-182.7988
2021-04-23 10:08:43.235570,-168.8877
2021-04-23 10:08:43.251200,-155.2918
2021-04-23 10:08:43.266820,-142.3183
2021-04-23 10:08:43.282450,-129.6278
2021-04-23 10:08:43.298080,-117.3735
2021-04-23 10:08:43.313700,-106.3678
2021-04-23 10:08:43.329330,-97.41958
2021-04-23 10:08:43.344950,-90.34634
2021-04-23 10:08:43.360580,-83.57935
2021-04-23 10:08:43.376200,-74.75496
2021-04-23 10:08:43.391830,-62.06546
2021-04-23 10:08:43.407460,-45.6982
2021-04-23 10:08:43.423080,-28.21083
2021-04-23 10:08:43.438710,-13.40323
2021-04-23 10:08:43.454330,-4.25613
2021-04-23 10:08:43.469960,-1.353481
2021-04-23 10:08:43.485580,-2.373535
2021-04-23 10:08:43.501210,-3.163548
2021-04-23 10:08:43.516840,0.2608871
2021-04-23 10:08:43.532460,9.836731
2021-04-23 10:08:43.548090,24.48988
2021-04-23 10:08:43.563710,40.76939
2021-04-23 10:08:43.579340,54.59866
2021-04-23 10:08:43.594960,63.27845
2021-04-23 10:08:43.610590,66.40661
2021-04-23 10:08:43.626220,65.57516
2021-04-23 10:08:43.641840,63.01086
2021-04-23 10:08:43.657470,60.18974
2021-04-23 10:08:43.673090,57.42992
2021-04-23 10:08:43.688720,54.19703
2021-04-23 10:08:43.704340,50.07782
2021-04-23 10:08:43.719970,45.40649
2021-04-23 10:08:43.735600,41.40668
2021-04-23 10:08:43.751220,39.45421
2021-04-23 10:08:43.766850,40.02876
2021-04-23 10:08:43.782470,42.0106
2021-04-23 10:08:43.798100,42.76839
2021-04-23 10:08:43.813720,39.22761
2021-04-23 10:08:43.829350,29.28953
2021-04-23 10:08:43.844980,13.06328
2021-04-23 10:08:43.860600,-6.918266
2021-04-23 10:08:43.876230,-26.52804
2021-04-23 10:08:43.891850,-41.64761
2021-04-23 10:08:43.907480,-49.85915
2021-04-23 10:08:43.923100,-51.32999
2021-04-23 10:08:43.938730,-48.52508
2021-04-23 10:08:43.954360,-44.91047
2021-04-23 10:08:43.969980,-43.37769
2021-04-23 10:08:43.985610,-45.09026
2021-04-23 10:08:44.001230,-49.39487
2021-04-23 10:08:44.016860,-54.57632
2021-04-23 10:08:44.032480,-58.94695
2021-04-23 10:08:44.048110,-61.70291
2021-04-23 10:08:44.063740,-62.97533
2021-04-23 10:08:44.079360,-63.27912
2021-04-23 10:08:44.110610,-61.16909
2021-04-23 10:08:44.126240,-57.41342
2021-04-23 10:08:44.141860,-50.76788
2021-04-23 10:08:44.157490,-41.20731
2021-04-23 10:08:44.173120,-29.49814
2021-04-23 10:08:44.188740,-16.96864
2021-04-23 10:08:44.204370,-4.790695
2021-04-23 10:08:44.219990,6.554016
2021-04-23 10:08:44.235620,17.27201
2021-04-23 10:08:44.251240,27.81685
2021-04-23 10:08:44.266870,38.17036
2021-04-23 10:08:44.282500,47.48208
2021-04-23 10:08:44.298120,54.21088
2021-04-23 10:08:44.313750,56.9691
2021-04-23 10:08:44.329370,55.29848
2021-04-23 10:08:44.345000,50.07407
2021-04-23 10:08:44.360620,43.17239
2021-04-23 10:08:44.376250,36.6002
2021-04-23 10:08:44.391880,31.63421
2021-04-23 10:08:44.407500,28.33541
2021-04-23 10:08:44.423130,25.86373
2021-04-23 10:08:44.438750,23.12147
2021-04-23 10:08:44.454380,19.47195
2021-04-23 10:08:44.470000,14.95767
2021-04-23 10:08:44.485630,10.11939
2021-04-23 10:08:44.501260,5.492203
2021-04-23 10:08:44.516880,1.251823
2021-04-23 10:08:44.532510,-2.812767
2021-04-23 10:08:44.548130,-7.136871
2021-04-23 10:08:44.563760,-12.05827
2021-04-23 10:08:44.579380,-17.64249
2021-04-23 10:08:44.595010,-23.61427
2021-04-23 10:08:44.610640,-29.44942
2021-04-23 10:08:44.626260,-34.38946
2021-04-23 10:08:44.641890,-37.66826
2021-04-23 10:08:44.657510,-38.6947
2021-04-23 10:08:44.673140,-37.23774
2021-04-23 10:08:44.688760,-33.60106
2021-04-23 10:08:44.704390,-28.54389
2021-04-23 10:08:44.720020,-22.95276
2021-04-23 10:08:44.735640,-17.51727
2021-04-23 10:08:44.751270,-12.50606
2021-04-23 10:08:44.766890,-7.779686
2021-04-23 10:08:44.782520,-3.169403
2021-04-23 10:08:44.798140,1.241089
2021-04-23 10:08:44.813770,5.005966
2021-04-23 10:08:44.829400,7.567513
2021-04-23 10:08:44.845020,8.636749
2021-04-23 10:08:44.860650,8.468384
2021-04-23 10:08:44.876270,7.742836
2021-04-23 10:08:44.891900,7.177589
2021-04-23 10:08:44.907520,7.093559
2021-04-23 10:08:44.923150,7.179077
2021-04-23 10:08:44.938780,6.680527
2021-04-23 10:08:44.954400,4.838081
2021-04-23 10:08:44.970030,1.277946
2021-04-23 10:08:44.985650,-3.84742
2021-04-23 10:08:45.001280,-9.990021
2021-04-23 10:08:45.016900,-16.59776
2021-04-23 10:08:45.032530,-23.37338
2021-04-23 10:08:45.048160,-30.33965
2021-04-23 10:08:45.063780,-37.70805
2021-04-23 10:08:45.079410,-45.66776
2021-04-23 10:08:45.095030,-54.22459
2021-04-23 10:08:45.110660,-63.21506
2021-04-23 10:08:45.126280,-72.33302
2021-04-23 10:08:45.141910,-81.1009
2021-04-23 10:08:45.157540,-88.73531
2021-04-23 10:08:45.173160,-94.07184
2021-04-23 10:08:45.188790,-95.78938
2021-04-23 10:08:45.204410,-92.99512
2021-04-23 10:08:45.220040,-85.73026
2021-04-23 10:08:45.235660,-75.09987
2021-04-23 10:08:45.251290,-62.82184
2021-04-23 10:08:45.266920,-50.31052
2021-04-23 10:08:45.282540,-37.97082
2021-04-23 10:08:45.298170,-25.14816
2021-04-23 10:08:45.313790,-10.82228
2021-04-23 10:08:45.329420,5.292564
2021-04-23 10:08:45.345050,22.03071
2021-04-23 10:08:45.360670,37.14101
2021-04-23 10:08:45.376300,48.55458
2021-04-23 10:08:45.391920,55.78122
2021-04-23 10:08:45.407550,60.54729
2021-04-23 10:08:45.423170,66.05495
2021-04-23 10:08:45.438800,75.2038
2021-04-23 10:08:45.454430,88.82396
2021-04-23 10:08:45.470050,105.0473
2021-04-23 10:08:45.485680,120.0794
2021-04-23 10:08:45.501300,130.03
2021-04-23 10:08:45.516930,132.6203
2021-04-23 10:08:45.532550,127.8479
2021-04-23 10:08:45.548180,117.4921
2021-04-23 10:08:45.563810,103.839
2021-04-23 10:08:45.579430,88.63036
2021-04-23 10:08:45.595060,72.68195
2021-04-23 10:08:45.610680,56.45184
2021-04-23 10:08:45.626310,40.65538
2021-04-23 10:08:45.641930,26.558
2021-04-23 10:08:45.657560,15.55299
2021-04-23 10:08:45.673190,8.348511
2021-04-23 10:08:45.688810,4.438324
2021-04-23 10:08:45.704440,2.194452
2021-04-23 10:08:45.720060,-0.3690891
2021-04-23 10:08:45.735690,-4.761395
2021-04-23 10:08:45.751310,-11.32803
2021-04-23 10:08:45.766940,-19.22049
2021-04-23 10:08:45.782570,-26.80638
2021-04-23 10:08:45.798190,-32.25254
2021-04-23 10:08:45.813820,-34.10135
2021-04-23 10:08:45.829440,-31.51373
2021-04-23 10:08:45.845070,-24.30531
2021-04-23 10:08:45.860690,-12.86675
2021-04-23 10:08:45.876320,2.011585
2021-04-23 10:08:45.891950,19.32626
2021-04-23 10:08:45.907570,37.89843
2021-04-23 10:08:45.923200,56.53627
2021-04-23 10:08:45.938820,74.2102
2021-04-23 10:08:45.954450,90.17449
2021-04-23 10:08:45.970070,104.1409
2021-04-23 10:08:45.985700,116.2642
2021-04-23 10:08:46.001330,126.9193
2021-04-23 10:08:46.016950,136.3356
2021-04-23 10:08:46.032580,144.1809
2021-04-23 10:08:46.048200,149.3928
2021-04-23 10:08:46.063830,150.3463
2021-04-23 10:08:46.079450,145.5077
2021-04-23 10:08:46.095080,134.1513
2021-04-23 10:08:46.110710,116.9377
2021-04-23 10:08:46.126330,95.98632
2021-04-23 10:08:46.141960,74.39055
2021-04-23 10:08:46.157580,55.35609
2021-04-23 10:08:46.173210,41.26659
2021-04-23 10:08:46.188830,33.02274
2021-04-23 10:08:46.204460,29.83173
2021-04-23 10:08:46.220090,29.61472
2021-04-23 10:08:46.235710,29.65857
2021-04-23 10:08:46.251340,27.55394
2021-04-23 10:08:46.266960,21.95328
2021-04-23 10:08:46.282590,12.80408
2021-04-23 10:08:46.298210,1.168564
2021-04-23 10:08:46.313840,-11.58038
2021-04-23 10:08:46.329470,-24.68584
2021-04-23 10:08:46.345090,-38.51801
2021-04-23 10:08:46.360720,-54.3344
2021-04-23 10:08:46.376340,-73.2778
2021-04-23 10:08:46.391970,-95.03619
2021-04-23 10:08:46.407590,-117.0607
2021-04-23 10:08:46.423220,-134.9816
2021-04-23 10:08:46.438850,-144.1972
2021-04-23 10:08:46.454470,-141.8632
2021-04-23 10:08:46.470100,-128.4157
2021-04-23 10:08:46.485720,-107.6088
2021-04-23 10:08:46.501350,-85.17123
2021-04-23 10:08:46.516970,-66.73624
2021-04-23 10:08:46.532600,-56.07544
2021-04-23 10:08:46.548230,-54.32156
2021-04-23 10:08:46.563850,-60.09103
2021-04-23 10:08:46.579480,-70.11456
2021-04-23 10:08:46.595100,-79.75293
2021-04-23 10:08:46.610730,-83.77512
2021-04-23 10:08:46.626350,-77.53607
2021-04-23 10:08:46.641980,-58.65576
2021-04-23 10:08:46.657610,-28.53751
2021-04-23 10:08:46.673230,7.177277
2021-04-23 10:08:46.688860,40.11597
2021-04-23 10:08:46.704480,62.28021
2021-04-23 10:08:46.720110,69.44742
2021-04-23 10:08:46.735730,63.20538
2021-04-23 10:08:46.751360,50.36444
2021-04-23 10:08:46.766990,39.83755
2021-04-23 10:08:46.782610,38.5946
2021-04-23 10:08:46.798240,48.79678
2021-04-23 10:08:46.813860,67.22372
2021-04-23 10:08:46.829490,87.35611
2021-04-23 10:08:46.845110,102.4857
2021-04-23 10:08:46.860740,108.1975
2021-04-23 10:08:46.876370,103.1187
2021-04-23 10:08:46.891990,88.00262
2021-04-23 10:08:46.907620,63.98853
2021-04-23 10:08:46.923240,31.47504
2021-04-23 10:08:46.938870,-9.652618
2021-04-23 10:08:46.954490,-58.29105
2021-04-23 10:08:46.970120,-110.1144
2021-04-23 10:08:46.985750,-156.954
2021-04-23 10:08:47.001370,-188.5086
2021-04-23 10:08:47.017000,-196.2316
2021-04-23 10:08:47.032620,-177.3625
2021-04-23 10:08:47.048250,-137.0142
2021-04-23 10:08:47.063870,-86.74323
2021-04-23 10:08:47.079500,-40.16754
2021-04-23 10:08:47.095130,-7.482605
2021-04-23 10:08:47.110750,8.371979
2021-04-23 10:08:47.126380,11.6987
2021-04-23 10:08:47.142000,10.69318
2021-04-23 10:08:47.157630,12.1749
2021-04-23 10:08:47.173250,17.66107
2021-04-23 10:08:47.188880,22.61963
2021-04-23 10:08:47.204510,19.27136
2021-04-23 10:08:47.220130,0.852356
2021-04-23 10:08:47.235760,-34.95013
2021-04-23 10:08:47.251380,-84.50055
2021-04-23 10:08:47.267010,-139.5591
2021-04-23 10:08:47.282630,-189.9541
2021-04-23 10:08:47.298260,-226.4458
2021-04-23 10:08:47.313890,-243.2476
2021-04-23 10:08:47.329510,-239.439
2021-04-23 10:08:47.345140,-218.6624
2021-04-23 10:08:47.360760,-187.5546
2021-04-23 10:08:47.376390,-153.4649
2021-04-23 10:08:47.392010,-121.838
2021-04-23 10:08:47.407640,-94.30136
2021-04-23 10:08:47.423270,-68.79535
2021-04-23 10:08:47.438890,-41.66956
2021-04-23 10:08:47.454520,-10.92639
2021-04-23 10:08:47.470140,21.10779
2021-04-23 10:08:47.485770,47.12219
2021-04-23 10:08:47.501390,57.1084
2021-04-23 10:08:47.517020,42.26813
2021-04-23 10:08:47.532650,-0.1503906
2021-04-23 10:08:47.548270,-64.12192
2021-04-23 10:08:47.563900,-135.541
2021-04-23 10:08:47.579520,-196.391
2021-04-23 10:08:47.595150,-230.9021
2021-04-23 10:08:47.610770,-231.1302
2021-04-23 10:08:47.626400,-200.1972
2021-04-23 10:08:47.642030,-151.0295
2021-04-23 10:08:47.657650,-102.0813
2021-04-23 10:08:47.673280,-69.77066
2021-04-23 10:08:47.688900,-62.22983
2021-04-23 10:08:47.704530,-76.72699
2021-04-23 10:08:47.720160,-101.7785
2021-04-23 10:08:47.735780,-122.8322
2021-04-23 10:08:47.751410,-128.0287
2021-04-23 10:08:47.767030,-112.4335
2021-04-23 10:08:47.782660,-78.63403
2021-04-23 10:08:47.798280,-34.89099
2021-04-23 10:08:47.813910,9.519867
2021-04-23 10:08:47.829540,47.69009
2021-04-23 10:08:47.845160,76.65915
2021-04-23 10:08:47.860790,96.60196
2021-04-23 10:08:47.876410,109.0078
2021-04-23 10:08:47.892040,115.0115
2021-04-23 10:08:47.907660,115.3658
2021-04-23 10:08:47.923290,114.631
2021-04-23 10:08:47.938920,116.7204
2021-04-23 10:08:47.954540,123.5623
2021-04-23 10:08:47.970170,134.0553
2021-04-23 10:08:47.985790,145.3268
2021-04-23 10:08:48.001420,154.6971
2021-04-23 10:08:48.017040,160.6165
2021-04-23 10:08:48.032670,162.8176
2021-04-23 10:08:48.048300,161.5969
2021-04-23 10:08:48.063920,157.5354
2021-04-23 10:08:48.079550,150.5763
2021-04-23 10:08:48.095170,139.869
2021-04-23 10:08:48.110800,123.692
2021-04-23 10:08:48.126420,99.846
2021-04-23 10:08:48.142050,66.09995
2021-04-23 10:08:48.157680,22.00769
2021-04-23 10:08:48.173300,-30.30574
2021-04-23 10:08:48.188930,-86.26508
2021-04-23 10:08:48.204550,-139.5991
2021-04-23 10:08:48.220180,-183.962
2021-04-23 10:08:48.235800,-213.2817
2021-04-23 10:08:48.251430,-222.0206
2021-04-23 10:08:48.267060,-206.1825
2021-04-23 10:08:48.282680,-165.2413
2021-04-23 10:08:48.298310,-104.3896
2021-04-23 10:08:48.313930,-35.21626
2021-04-23 10:08:48.329560,26.72
2021-04-23 10:08:48.345180,67.07687
2021-04-23 10:08:48.360810,78.06973
2021-04-23 10:08:48.376440,62.05265
2021-04-23 10:08:48.392060,30.48448
2021-04-23 10:08:48.407690,-1.132828
2021-04-23 10:08:48.423310,-19.69234
2021-04-23 10:08:48.438940,-19.39155
2021-04-23 10:08:48.454560,-2.431694
2021-04-23 10:08:48.470190,24.16312
2021-04-23 10:08:48.485820,53.11597
2021-04-23 10:08:48.501440,79.83833
2021-04-23 10:08:48.517070,102.7395
2021-04-23 10:08:48.532690,121.2633
2021-04-23 10:08:48.548320,133.6654
2021-04-23 10:08:48.563940,137.0517
2021-04-23 10:08:48.579570,129.2854
2021-04-23 10:08:48.595200,111.5379
2021-04-23 10:08:48.610820,89.28098
2021-04-23 10:08:48.626450,70.6848
2021-04-23 10:08:48.642070,63.05614
2021-04-23 10:08:48.657700,69.49152
2021-04-23 10:08:48.673320,87.44823
2021-04-23 10:08:48.688950,109.8723
2021-04-23 10:08:48.704580,128.7666
2021-04-23 10:08:48.720200,138.5739
2021-04-23 10:08:48.735830,138.1477
2021-04-23 10:08:48.751450,130.3919
2021-04-23 10:08:48.767080,119.9585
2021-04-23 10:08:48.782700,110.5796
2021-04-23 10:08:48.798330,103.4066
2021-04-23 10:08:48.813960,97.03427
2021-04-23 10:08:48.829580,88.94012
2021-04-23 10:08:48.845210,77.52458
2021-04-23 10:08:48.860830,63.25359
2021-04-23 10:08:48.876460,48.55299
2021-04-23 10:08:48.892080,36.60463
2021-04-23 10:08:48.907710,29.68785
2021-04-23 10:08:48.923340,28.07297
2021-04-23 10:08:48.938960,29.96994
2021-04-23 10:08:48.954590,32.33305
2021-04-23 10:08:48.970210,32.2412
2021-04-23 10:08:48.985840,28.06854
2021-04-23 10:08:49.001460,19.91841
2021-04-23 10:08:49.017090,9.348541
2021-04-23 10:08:49.032720,-1.515793
2021-04-23 10:08:49.048340,-10.88356
2021-04-23 10:08:49.063970,-17.90425
2021-04-23 10:08:49.079590,-22.82735
2021-04-23 10:08:49.095220,-26.58081
2021-04-23 10:08:49.110840,-30.18404
2021-04-23 10:08:49.126470,-34.1284
2021-04-23 10:08:49.142100,-38.17007
2021-04-23 10:08:49.157720,-41.47606
2021-04-23 10:08:49.173350,-43.01389
2021-04-23 10:08:49.188970,-42.03726
2021-04-23 10:08:49.204600,-38.45337
2021-04-23 10:08:49.220220,-32.79376
2021-04-23 10:08:49.235850,-26.09137
2021-04-23 10:08:49.251480,-19.49626
2021-04-23 10:08:49.267100,-13.89536
2021-04-23 10:08:49.282730,-9.770966
2021-04-23 10:08:49.298350,-7.05484
2021-04-23 10:08:49.313980,-5.201782
2021-04-23 10:08:49.329600,-3.389694
2021-04-23 10:08:49.345230,-0.8237152
2021-04-23 10:08:49.360860,3.060959
2021-04-23 10:08:49.376480,8.335648
2021-04-23 10:08:49.392110,14.49757
2021-04-23 10:08:49.407730,20.64659
2021-04-23 10:08:49.423360,25.69635
2021-04-23 10:08:49.438980,28.75583
2021-04-23 10:08:49.454610,29.3755
2021-04-23 10:08:49.470240,27.6656
2021-04-23 10:08:49.485860,24.1664
2021-04-23 10:08:49.501490,19.64847
2021-04-23 10:08:49.517110,14.78609
2021-04-23 10:08:49.532740,9.927475
2021-04-23 10:08:49.548360,5.052902
2021-04-23 10:08:49.563990,-0.08815002
2021-04-23 10:08:49.579620,-5.78537
2021-04-23 10:08:49.595240,-12.14804
2021-04-23 10:08:49.610870,-19.01538
2021-04-23 10:08:49.626490,-26.01811
2021-04-23 10:08:49.642120,-32.67525
2021-04-23 10:08:49.657740,-38.58322
2021-04-23 10:08:49.673370,-43.39386
2021-04-23 10:08:49.689000,-46.70819
2021-04-23 10:08:49.704620,-48.01755
2021-04-23 10:08:49.720250,-46.62375
2021-04-23 10:08:49.735870,-41.9037
2021-04-23 10:08:49.751500,-33.5558
2021-04-23 10:08:49.767120,-21.95134
2021-04-23 10:08:49.782750,-8.351135
2021-04-23 10:08:49.798380,5.298058
2021-04-23 10:08:49.814000,16.84919
2021-04-23 10:08:49.829630,24.72901
2021-04-23 10:08:49.845250,28.52856
2021-04-23 10:08:49.860880,29.25561
2021-04-23 10:08:49.876500,29.04742
2021-04-23 10:08:49.892130,30.34068
2021-04-23 10:08:49.907760,34.83801
2021-04-23 10:08:49.923380,42.81287
2021-04-23 10:08:49.939010,52.93034
2021-04-23 10:08:49.954630,62.92266
2021-04-23 10:08:49.970260,70.65842
2021-04-23 10:08:49.985880,75.06081
2021-04-23 10:08:50.001510,76.49904
2021-04-23 10:08:50.017140,76.41976
2021-04-23 10:08:50.032760,76.47519
2021-04-23 10:08:50.048390,77.58687
2021-04-23 10:08:50.064010,79.63618
2021-04-23 10:08:50.079640,81.62402
2021-04-23 10:08:50.095260,82.40019
2021-04-23 10:08:50.110890,81.37376
2021-04-23 10:08:50.126520,78.80399
2021-04-23 10:08:50.142140,75.57217
2021-04-23 10:08:50.157770,72.68754
2021-04-23 10:08:50.173390,70.72832
2021-04-23 10:08:50.189020,69.64637
2021-04-23 10:08:50.204650,68.94355
2021-04-23 10:08:50.220270,68.07302
2021-04-23 10:08:50.235900,66.80304
2021-04-23 10:08:50.251520,65.36624
2021-04-23 10:08:50.267150,64.24229
2021-04-23 10:08:50.282770,63.7294
2021-04-23 10:08:50.298400,63.65755
2021-04-23 10:08:50.314030,63.28418
2021-04-23 10:08:50.329650,61.59927
2021-04-23 10:08:50.345280,57.7593
2021-04-23 10:08:50.360900,51.56818
2021-04-23 10:08:50.376530,43.65819
2021-04-23 10:08:50.392150,35.37212
2021-04-23 10:08:50.407780,28.24514
2021-04-23 10:08:50.423410,23.43776
2021-04-23 10:08:50.439030,21.25069
2021-04-23 10:08:50.454660,20.95984
2021-04-23 10:08:50.470280,21.14258
2021-04-23 10:08:50.485910,20.15694
2021-04-23 10:08:50.501530,16.70004
2021-04-23 10:08:50.517160,10.17661
2021-04-23 10:08:50.532790,0.7418976
2021-04-23 10:08:50.548410,-11.11684
2021-04-23 10:08:50.564040,-25.06064
2021-04-23 10:08:50.579660,-41.3167
2021-04-23 10:08:50.595290,-60.74358
2021-04-23 10:08:50.610910,-84.39276
2021-04-23 10:08:50.626540,-112.832
2021-04-23 10:08:50.642170,-145.5046
2021-04-23 10:08:50.657790,-180.328
2021-04-23 10:08:50.673420,-213.9104
2021-04-23 10:08:50.689040,-242.1418
2021-04-23 10:08:50.704670,-261.1017
2021-04-23 10:08:50.720290,-268.0752
2021-04-23 10:08:50.735920,-262.2689
2021-04-23 10:08:50.751550,-245.0747
2021-04-23 10:08:50.767170,-219.7379
2021-04-23 10:08:50.782800,-190.6117
2021-04-23 10:08:50.798420,-162.0941
2021-04-23 10:08:50.814050,-137.6026
2021-04-23 10:08:50.829670,-118.8473
2021-04-23 10:08:50.845300,-105.6297
2021-04-23 10:08:50.860930,-96.24524
2021-04-23 10:08:50.876550,-88.20047
2021-04-23 10:08:50.892180,-79.1528
2021-04-23 10:08:50.907800,-67.67737
2021-04-23 10:08:50.923430,-53.72778
2021-04-23 10:08:50.939050,-38.48541
2021-04-23 10:08:50.954680,-23.8504
2021-04-23 10:08:50.970310,-11.58325
2021-04-23 10:08:50.985930,-2.551483
2021-04-23 10:08:51.001560,3.604736
2021-04-23 10:08:51.017180,8.366058
2021-04-23 10:08:51.032810,13.68228
2021-04-23 10:08:51.048430,21.22763
2021-04-23 10:08:51.064060,31.68738
2021-04-23 10:08:51.079690,44.5719
2021-04-23 10:08:51.095310,58.41922
2021-04-23 10:08:51.110940,71.51633
2021-04-23 10:08:51.126560,82.60205
2021-04-23 10:08:51.142190,91.20679
2021-04-23 10:08:51.157810,97.51889
2021-04-23 10:08:51.173440,101.8877
2021-04-23 10:08:51.189070,104.5304
2021-04-23 10:08:51.204690,105.5626
2021-04-23 10:08:51.220320,105.489
2021-04-23 10:08:51.235940,105.5985
2021-04-23 10:08:51.251570,107.858
2021-04-23 10:08:51.267190,114.0063
2021-04-23 10:08:51.282820,124.4468
2021-04-23 10:08:51.298450,137.3626
2021-04-23 10:08:51.314070,148.7902
2021-04-23 10:08:51.329700,153.7628
2021-04-23 10:08:51.345320,148.0734
2021-04-23 10:08:51.360950,129.8946
2021-04-23 10:08:51.376570,100.5832
2021-04-23 10:08:51.392200,64.44562
2021-04-23 10:08:51.407830,27.54327
2021-04-23 10:08:51.423450,-3.956146
2021-04-23 10:08:51.439080,-25.32526
2021-04-23 10:08:51.454700,-34.47086
2021-04-23 10:08:51.470330,-32.39047
2021-04-23 10:08:51.485950,-22.86716
2021-04-23 10:08:51.501580,-11.24579
2021-04-23 10:08:51.517210,-3.143219
2021-04-23 10:08:51.532830,-3.304718
2021-04-23 10:08:51.548460,-14.50201
2021-04-23 10:08:51.564080,-36.62885
2021-04-23 10:08:51.579710,-66.0679
2021-04-23 10:08:51.595330,-96.08508
2021-04-23 10:08:51.610960,-118.5164
2021-04-23 10:08:51.626590,-126.8361
2021-04-23 10:08:51.642210,-118.437
2021-04-23 10:08:51.657840,-95.98334
2021-04-23 10:08:51.673460,-66.6532
2021-04-23 10:08:51.689090,-39.38205
2021-04-23 10:08:51.704710,-21.38657
2021-04-23 10:08:51.720340,-15.83987
2021-04-23 10:08:51.735970,-21.70163
2021-04-23 10:08:51.751590,-35.5946
2021-04-23 10:08:51.767220,-54.9859
2021-04-23 10:08:51.782840,-78.47861
2021-04-23 10:08:51.798470,-105.4556
2021-04-23 10:08:51.814090,-135.1155
2021-04-23 10:08:51.829720,-165.8676
2021-04-23 10:08:51.845350,-195.4243
2021-04-23 10:08:51.860970,-221.4428
2021-04-23 10:08:51.876600,-241.9268
2021-04-23 10:08:51.892220,-255.2609
2021-04-23 10:08:51.907850,-260.9362
2021-04-23 10:08:51.923470,-257.9305
2021-04-23 10:08:51.939100,-245.1819
2021-04-23 10:08:51.954730,-223.1497
2021-04-23 10:08:51.970350,-195.1103
2021-04-23 10:08:51.985980,-166.687
2021-04-23 10:08:52.001600,-143.8607
2021-04-23 10:08:52.017230,-130.5892
2021-04-23 10:08:52.032850,-127.7615
2021-04-23 10:08:52.048480,-134.8731
2021-04-23 10:08:52.064110,-149.1987
2021-04-23 10:08:52.079730,-166.6215
2021-04-23 10:08:52.095360,-182.345
2021-04-23 10:08:52.110980,-191.5339
2021-04-23 10:08:52.126610,-189.7198
2021-04-23 10:08:52.142230,-173.7884
2021-04-23 10:08:52.157860,-143.2624
2021-04-23 10:08:52.173490,-93.08548
2021-04-23 10:08:52.189110,-28.55348
2021-04-23 10:08:52.204740,37.47298
2021-04-23 10:08:52.220360,90.79057
2021-04-23 10:08:52.235990,123.5143
2021-04-23 10:08:52.251610,136.4091
2021-04-23 10:08:52.267240,135.8054
2021-04-23 10:08:52.282870,129.2217
2021-04-23 10:08:52.298490,122.1446
2021-04-23 10:08:52.314120,117.3223
2021-04-23 10:08:52.329740,114.8129
2021-04-23 10:08:52.345370,115.0759
2021-04-23 10:08:52.361000,119.5352
2021-04-23 10:08:52.376620,129.9605
2021-04-23 10:08:52.392250,145.921
2021-04-23 10:08:52.407870,165.1389
2021-04-23 10:08:52.423500,184.0581
2021-04-23 10:08:52.439120,199.5577
2021-04-23 10:08:52.454750,210.3777
2021-04-23 10:08:52.470380,216.5242
2021-04-23 10:08:52.486000,219.9925
2021-04-23 10:08:52.501630,223.4682
2021-04-23 10:08:52.517250,228.7469
2021-04-23 10:08:52.532880,235.8511
2021-04-23 10:08:52.548500,243.6326
2021-04-23 10:08:52.564130,250.9687
2021-04-23 10:08:52.579760,257.5552
2021-04-23 10:08:52.595380,263.6678
2021-04-23 10:08:52.611010,268.5381
2021-04-23 10:08:52.626630,270.5739
2021-04-23 10:08:52.642260,267.7686
2021-04-23 10:08:52.657880,258.6431
2021-04-23 10:08:52.673510,243.1018
2021-04-23 10:08:52.689140,222.7751
2021-04-23 10:08:52.704760,200.4398
2021-04-23 10:08:52.720390,178.7658
2021-04-23 10:08:52.736010,159.3062
2021-04-23 10:08:52.751640,141.5919
2021-04-23 10:08:52.767260,123.8594
2021-04-23 10:08:52.782890,104.0487
2021-04-23 10:08:52.798520,80.72505
2021-04-23 10:08:52.814140,53.57164
2021-04-23 10:08:52.829770,23.68933
2021-04-23 10:08:52.845390,-6.607677
2021-04-23 10:08:52.861020,-34.32982
2021-04-23 10:08:52.876640,-56.64413
2021-04-23 10:08:52.892270,-71.86604
2021-04-23 10:08:52.907900,-79.82853
2021-04-23 10:08:52.923520,-81.88027
2021-04-23 10:08:52.939150,-80.41104
2021-04-23 10:08:52.954770,-78.28738
2021-04-23 10:08:52.970400,-78.13127
2021-04-23 10:08:52.986020,-81.8168
2021-04-23 10:08:53.001650,-90.01782
2021-04-23 10:08:53.017280,-101.9182
2021-04-23 10:08:53.032900,-115.2872
2021-04-23 10:08:53.048530,-127.0103
2021-04-23 10:08:53.064150,-134.0471
2021-04-23 10:08:53.079780,-134.634
2021-04-23 10:08:53.095400,-129.0723
2021-04-23 10:08:53.111030,-119.5995
2021-04-23 10:08:53.126660,-109.4999
2021-04-23 10:08:53.142280,-101.5903
2021-04-23 10:08:53.157910,-97.07558
2021-04-23 10:08:53.173530,-95.23803
2021-04-23 10:08:53.189160,-94.12811
2021-04-23 10:08:53.204780,-91.71233
2021-04-23 10:08:53.220410,-86.881
2021-04-23 10:08:53.236040,-79.72723
2021-04-23 10:08:53.251660,-71.03603
2021-04-23 10:08:53.267290,-61.6644
2021-04-23 10:08:53.282910,-52.08319
2021-04-23 10:08:53.298540,-42.38087
2021-04-23 10:08:53.314160,-32.55414
2021-04-23 10:08:53.329790,-22.73578
2021-04-23 10:08:53.345420,-13.25873
2021-04-23 10:08:53.361040,-4.3526
2021-04-23 10:08:53.376670,4.122162
2021-04-23 10:08:53.392290,12.71393
2021-04-23 10:08:53.407920,22.0293
2021-04-23 10:08:53.423540,32.17781
2021-04-23 10:08:53.439170,42.44814
2021-04-23 10:08:53.454800,51.40009
2021-04-23 10:08:53.470420,57.44899
2021-04-23 10:08:53.486050,59.67935
2021-04-23 10:08:53.501670,58.46622
2021-04-23 10:08:53.517300,55.54198
2021-04-23 10:08:53.532920,53.46922
2021-04-23 10:08:53.548550,54.58298
2021-04-23 10:08:53.564180,59.93536
2021-04-23 10:08:53.579800,68.69125
2021-04-23 10:08:53.595430,78.23164
2021-04-23 10:08:53.611050,85.13269
2021-04-23 10:08:53.626680,86.55864
2021-04-23 10:08:53.642300,81.52892
2021-04-23 10:08:53.657930,71.40732
